1523527423.00
64.000000
-0.00
-0.00
-0.00
-0.00
-0.00
-0.00
-0.00
-0.00
-0.00
-0.00
0.00
0.01
0.01
-0.00
-0.03
-0.05
-0.05
0.00
0.13
0.36
0.66
1.01
1.37
1.72
2.06
2.40
2.79
3.24
3.80
4.42
5.06
5.66
6.20
6.68
7.15
7.68
8.31
9.14
10.09
11.04
11.88
12.56
13.14
13.76
14.65
15.96
17.91
20.32
22.90
25.38
27.58
29.57
31.68
34.32
37.81
42.54
48.15
54.10
59.83
64.97
69.58
74.14
79.34
85.71
93.76
103.00
112.62
121.73
129.77
136.75
143.30
150.75
157.77
166.64
177.95
191.79
206.97
220.57
228.25
225.36
208.53
176.87
132.76
80.05
23.07
-34.94
-92.44
-149.16
-205.23
-260.37
-313.74
-363.87
-409.83
-450.91
-486.50
-515.74
-537.23
-549.22
-549.96
-538.37
-514.21
-478.67
-433.88
-382.45
-327.02
-269.84
-212.63
-156.66
-102.95
-52.37
-5.90
35.58
71.43
101.35
125.50
144.38
158.69
169.15
176.37
180.75
182.57
182.07
179.51
175.23
169.65
163.18
156.15
148.81
141.30
133.69
126.02
118.33
110.69
103.16
95.80
88.68
81.83
75.25
68.95
62.95
57.25
51.86
46.78
42.03
37.59
33.45
29.61
26.07
22.81
19.83
17.11
14.67
12.48
10.54
8.83
7.35
6.07
4.97
4.05
3.27
2.62
2.09
1.65
1.30
1.01
0.79
0.61
0.47
0.37
0.29
0.23
0.18
0.16
0.14
0.13
0.14
0.15
0.17
0.20
0.23
0.27
0.31
0.35
0.40
0.45
0.49
0.54
0.59
0.65
0.70
0.76
0.82
0.89
0.97
1.05
1.14
1.25
1.36
1.49
1.64
1.80
1.98
2.19
2.41
2.66
2.94
3.25
3.58
3.95
4.35
4.79
5.26
5.77
6.32
6.92
7.55
8.23
8.95
9.72
10.53
11.39
12.29
13.24
14.24
15.30
16.42
17.61
18.86
20.15
21.46
22.72
23.85
24.76
25.31
25.37
24.83
23.57
21.54
18.74
15.22
11.08
6.50
1.69
-3.12
-7.68
-11.77
-15.21
-17.88
-19.72
-20.79
-21.15
-20.94
-20.29
-19.28
-17.99
-16.48
-14.80
-13.02
-11.21
-9.43
-7.77
-6.24
-4.82
-3.44
-2.00
-0.46
1.17
2.85
4.53
6.05
7.38
8.61
9.92
11.49
13.41
15.59
17.84
19.98
21.58
22.57
23.18
23.82
24.93
26.73
29.07
31.55
33.73
34.80
34.58
33.48
32.25
31.66
32.07
33.19
34.22
34.25
31.96
26.92
19.51
10.56
0.83
-9.60
-21.78
-38.07
-56.82
-78.74
-104.82
-135.71
-170.91
-207.90
-241.87
-266.54
-275.96
-266.66
-239.87
-200.46
-155.34
-111.04
-71.88
-39.43
-13.32
7.50
23.84
35.56
42.77
46.32
47.71
48.66
50.49
53.63
57.77
62.16
65.83
68.39
70.09
71.57
73.49
76.10
79.09
81.66
82.89
81.99
78.82
73.92
68.22
62.68
58.00
54.34
51.46
48.84
45.97
42.54
38.55
34.24
29.96
26.01
22.59
19.71
17.30
15.15
13.02
10.62
7.73
4.26
0.34
-3.71
-7.50
-10.68
-13.20
-15.28
-17.41
-20.15
-23.90
-28.72
-34.34
-40.25
-45.93
-51.03
-55.50
-59.59
-63.82
-68.81
-75.12
-83.02
-92.18
-101.49
-109.11
-112.86
-110.88
-102.24
-87.30
-67.64
-45.50
-23.18
-2.50
15.42
30.08
41.34
49.29
54.08
56.04
55.62
53.43
50.23
46.78
43.76
41.73
41.00
41.64
43.48
46.24
49.60
53.21
56.77
59.93
62.34
63.64
63.59
62.14
59.52
56.06
52.16
48.05
43.83
39.42
34.75
29.85
24.88
20.12
15.79
12.00
8.65
5.49
2.26
-1.20
-4.79
-8.27
-11.34
-13.88
-16.05
-18.27
-21.01
-24.54
-28.82
-33.46
-37.92
-41.81
-45.08
-48.03
-51.16
-55.09
-60.33
-67.25
-75.82
-85.42
-94.68
-101.56
-103.79
-99.57
-88.28
-70.74
-48.98
-25.60
-2.98
17.21
34.10
47.36
56.93
62.85
65.30
64.76
62.03
58.13
54.03
50.44
47.75
46.01
45.09
44.89
45.32
46.39
48.08
50.24
52.56
54.57
55.72
55.58
53.94
50.90
46.89
42.49
38.23
34.50
31.37
28.73
26.30
23.82
21.16
18.34
15.55
13.00
10.92
9.34
8.15
7.04
5.62
3.61
0.89
-2.34
-5.75
-8.96
-11.76
-14.22
-16.68
-19.61
-23.41
-28.19
-33.80
-39.75
-45.52
-50.75
-55.30
-59.44
-63.74
-68.97
-75.82
-84.60
-94.80
-104.92
-112.67
-115.51
-111.50
-100.08
-82.27
-60.45
-37.48
-15.92
2.56
17.24
28.13
35.69
40.62
43.74
45.87
47.65
49.38
50.97
52.12
52.64
52.62
52.43
52.53
53.22
54.53
56.26
58.17
60.06
61.78
63.16
63.90
63.64
62.14
59.43
55.74
51.61
47.52
43.78
40.41
37.19
33.83
30.14
26.14
22.06
18.19
14.82
12.08
9.95
8.30
6.91
5.57
4.04
2.13
-0.27
-3.12
-6.20
-9.28
-12.15
-14.84
-17.56
-20.64
-24.37
-28.82
-33.88
-39.23
-44.51
-49.45
-53.84
-57.64
-60.97
-64.19
-67.86
-72.62
-78.92
-86.51
-94.21
-100.05
-101.72
-97.45
-86.62
-70.12
-49.98
-28.66
-8.39
9.40
24.07
35.53
43.94
49.49
52.36
52.83
51.32
48.43
44.84
41.22
38.13
35.94
34.80
34.72
35.57
37.24
39.55
42.27
45.07
47.52
49.11
49.44
48.35
45.96
42.57
38.62
34.48
30.42
26.56
22.92
19.45
16.07
12.70
9.27
5.74
2.13
-1.46
-4.88
-8.01
-10.80
-13.32
-15.77
-18.38
-21.35
-24.81
-28.70
-32.92
-37.28
-41.57
-45.69
-49.65
-53.66
-58.15
-63.65
-70.58
-78.86
-87.57
-95.02
-99.04
-97.68
-89.89
-75.93
-57.33
-36.35
-15.37
3.72
19.74
32.16
40.94
46.33
48.79
48.94
47.52
45.27
42.82
40.61
38.86
37.71
37.21
37.42
38.33
39.92
42.07
44.58
47.15
49.36
50.80
51.10
50.07
47.76
44.48
40.62
36.57
32.53
28.55
24.55
20.47
16.36
12.43
8.89
5.90
3.43
1.29
-0.81
-3.07
-5.62
-8.39
-11.25
-14.10
-16.89
-19.72
-22.78
-26.25
-30.26
-34.78
-39.63
-44.52
-49.15
-53.28
-56.88
-60.18
-63.61
-67.82
-73.43
-80.72
-89.28
-97.81
-104.27
-106.39
-102.43
-91.76
-75.22
-54.74
-32.82
-11.78
6.67
21.62
32.79
40.32
44.69
46.57
46.79
46.16
45.35
44.73
44.48
44.60
45.07
45.85
46.95
48.36
50.05
51.95
53.92
55.80
57.29
58.05
57.74
56.16
53.37
49.66
45.56
41.56
38.02
35.00
32.37
29.91
27.42
24.85
22.30
19.93
17.88
16.26
15.05
14.19
13.52
12.86
12.02
10.87
9.36
7.53
5.52
3.51
1.60
-0.21
-2.02
-4.01
-6.34
-9.09
-12.16
-15.33
-18.34
-21.03
-23.42
-25.79
-28.49
-31.82
-35.86
-40.42
-45.12
-49.59
-53.64
-57.38
-61.17
-65.52
-70.94
-77.72
-85.79
-94.44
-102.35
-107.63
-108.29
-102.89
-91.04
-73.66
-52.77
-30.91
-10.40
7.14
20.94
30.93
37.43
40.90
41.86
40.92
38.76
36.16
33.77
32.13
31.49
31.91
33.28
35.37
37.88
40.53
43.06
45.27
46.98
48.06
48.34
47.67
45.96
43.22
39.68
35.72
31.80
28.33
25.51
23.28
21.44
19.74
18.00
16.25
14.59
13.13
11.90
10.81
9.71
8.43
6.88
5.09
3.11
1.07
-0.97
-2.98
-5.06
-7.36
-10.09
-13.40
-17.33
-21.72
-26.27
-30.60
-34.46
-37.81
-40.83
-43.87
-47.37
-51.74
-57.29
-64.10
-71.81
-79.47
-85.52
-88.11
-85.69
-77.55
-64.17
-47.11
-28.44
-10.19
6.13
19.67
30.12
37.52
42.06
44.12
44.18
42.88
40.83
38.61
36.65
35.25
34.61
34.82
35.83
37.46
39.48
41.66
43.77
45.63
47.04
47.74
47.50
46.17
43.82
40.70
37.21
33.73
30.53
27.71
25.21
22.93
20.78
18.72
16.74
14.81
12.91
11.06
9.28
7.63
6.17
4.96
3.95
3.03
1.99
0.70
-1.01
-3.18
-5.76
-8.63
-11.57
-14.38
-16.87
-19.04
-21.07
-23.29
-26.07
-29.65
-34.03
-38.94
-43.95
-48.66
-52.81
-56.42
-59.77
-63.37
-67.82
-73.62
-80.89
-89.11
-96.96
-102.51
-103.66
-98.78
-87.41
-70.44
-49.88
-28.30
-8.03
9.28
22.87
32.64
38.95
42.34
43.47
43.07
41.93
40.71
39.84
39.46
39.46
39.65
39.93
40.33
41.08
42.38
44.33
46.77
49.30
51.39
52.56
52.55
51.38
49.29
46.60
43.57
40.38
37.10
33.83
30.73
27.97
25.71
23.93
22.50
21.17
19.76
18.22
16.60
15.02
13.57
12.23
10.92
9.52
7.89
5.92
3.55
0.72
-2.54
-6.14
-9.90
-13.58
-16.97
-19.97
-22.64
-25.20
-27.95
-31.10
-34.66
-38.42
-42.01
-45.10
-47.57
-49.63
-51.76
-54.61
-58.75
-64.57
-71.96
-80.14
-87.60
-92.34
-92.38
-86.41
-74.33
-57.37
-37.71
-17.77
0.43
15.68
27.50
35.93
41.17
43.52
43.45
41.59
38.73
35.70
33.10
31.22
30.10
29.58
29.52
29.85
30.64
31.99
33.93
36.33
38.89
41.16
42.63
42.96
42.04
40.12
37.58
34.87
32.30
29.90
27.52
24.94
22.01
18.76
15.36
12.01
8.90
6.09
3.59
1.35
-0.73
-2.71
-4.66
-6.55
-8.30
-9.80
-11.00
-11.99
-12.99
-14.29
-16.16
-18.67
-21.73
-25.05
-28.32
-31.31
-33.97
-36.51
-39.36
-43.06
-48.14
-54.80
-62.67
-70.68
-77.18
-80.32
-78.60
-71.39
-59.17
-43.36
-25.91
-8.73
6.68
19.46
29.26
36.08
40.11
41.67
41.18
39.18
36.30
33.16
30.34
28.32
27.35
27.45
28.49
30.17
32.20
34.35
36.49
38.47
40.10
41.11
41.16
40.04
37.71
34.35
30.29
25.93
21.60
17.51
13.80
10.51
7.63
5.06
2.66
0.24
-2.31
-5.03
-7.78
-10.37
-12.63
-14.51
-16.12
-17.70
-19.55
-21.86
-24.70
-27.97
-31.50
-35.10
-38.63
-42.07
-45.51
-49.18
-53.42
-58.61
-65.02
-72.56
-80.58
-87.72
-92.20
-92.19
-86.52
-75.04
-58.81
-39.77
-20.14
-1.90
13.64
25.83
34.61
40.27
43.25
44.08
43.34
41.65
39.54
37.49
35.85
34.84
34.59
35.10
36.33
38.15
40.40
42.88
45.33
47.46
48.92
49.38
48.62
46.63
43.65
40.11
36.51
33.23
30.43
28.05
25.88
23.65
21.20
18.51
15.72
13.07
10.80
9.06
7.80
6.78
5.67
4.10
1.89
-0.90
-4.05
-7.28
-10.47
-13.69
-17.18
-21.12
-25.54
-30.25
-34.91
-39.22
-43.03
-46.41
-49.59
-52.94
-56.86
-61.78
-67.98
-75.38
-83.25
-90.17
-94.21
-93.51
-86.95
-74.60
-57.75
-38.46
-18.97
-1.03
14.25
26.37
35.23
40.94
43.78
44.24
42.98
40.77
38.24
35.83
33.76
32.16
31.10
30.72
31.11
32.31
34.15
36.37
38.58
40.41
41.60
42.02
41.65
40.58
38.95
36.89
34.46
31.78
28.95
26.08
23.29
20.62
18.07
15.58
13.08
10.51
7.89
5.21
2.49
-0.25
-2.98
-5.67
-8.28
-10.85
-13.54
-16.55
-20.10
-24.24
-28.87
-33.70
-38.37
-42.58
-46.22
-49.44
-52.58
-56.15
-60.64
-66.28
-72.81
-79.31
-84.26
-85.85
-82.58
-73.73
-59.71
-41.98
-22.63
-3.78
12.90
26.45
36.56
43.38
47.27
48.62
47.84
45.42
41.95
38.14
34.74
32.34
31.28
31.55
32.91
34.99
37.48
40.21
43.03
45.74
48.03
49.45
49.62
48.39
45.90
42.58
38.95
35.48
32.34
29.51
26.74
23.83
20.70
17.45
14.30
11.49
9.19
7.43
6.05
4.79
3.31
1.38
-1.06
-3.85
-6.73
-9.43
-11.95
-14.51
-17.54
-21.38
-26.14
-31.57
-37.16
-42.42
-47.10
-51.29
-55.31
-59.59
-64.54
-70.48
-77.57
-85.67
-94.09
-101.41
-105.74
-105.10
-98.24
-85.12
-67.03
-46.23
-25.22
-6.05
10.05
22.63
31.80
37.94
41.51
43.02
43.04
42.20
41.11
40.28
40.10
40.77
42.30
44.53
47.16
49.95
52.66
55.18
57.45
59.32
60.56
60.88
60.04
58.00
54.92
51.17
47.20
43.40
40.04
37.16
34.70
32.47
30.33
28.16
25.95
23.73
21.61
19.66
17.96
16.49
15.15
13.69
11.77
9.09
5.46
1.01
-3.87
-8.67
-12.97
-16.66
-19.92
-23.15
-26.70
-30.75
-35.17
-39.58
-43.61
-46.95
-49.54
-51.57
-53.42
-55.72
-59.12
-64.17
-71.01
-79.10
-87.08
-93.02
-94.91
-91.32
-81.89
-67.44
-49.71
-30.71
-12.31
4.17
17.93
28.59
36.09
40.63
42.65
42.79
41.80
40.38
39.07
38.18
37.83
37.97
38.46
39.06
39.60
40.02
40.37
40.80
41.33
41.86
42.02
41.34
39.50
36.37
32.24
27.63
23.16
19.30
16.27
14.03
12.27
10.64
8.85
6.81
4.62
2.48
0.51
-1.43
-3.65
-6.58
-10.52
-15.41
-20.88
-26.33
-31.18
-35.13
-38.27
-41.02
-44.05
-48.01
-53.43
-60.47
-68.79
-77.36
-84.52
-88.32
-87.06
-79.83
-66.89
-49.68
-30.33
-11.09
6.24
20.62
31.70
39.63
44.69
47.23
47.67
46.44
44.19
41.63
39.46
38.25
38.30
39.60
41.88
44.75
47.83
50.81
53.44
55.48
56.64
56.62
55.13
52.04
47.54
42.01
36.01
30.06
24.63
19.95
16.10
12.96
10.39
8.16
6.10
4.06
1.98
-0.13
-2.21
-4.13
-5.78
-7.17
-8.43
-9.90
-11.97
-14.98
-19.08
-24.15
-29.89
-35.88
-41.74
-47.28
-52.51
-57.63
-63.00
-69.03
-76.11
-84.30
-93.13
-101.41
-107.26
-108.67
-104.04
-92.79
-75.62
-54.39
-31.54
-9.43
10.19
26.32
38.64
47.26
52.66
55.52
56.62
56.73
56.46
56.21
56.20
56.37
56.70
57.31
58.41
60.12
62.35
64.80
67.13
69.07
70.06
69.69
68.03
65.24
61.44
56.58
50.40
42.78
33.66
22.28
8.01
-9.01
-28.28
-48.87
-69.48
-88.61
-104.46
-115.60
-122.80
-127.54
-130.70
-132.70
-133.07
-130.71
-124.41
-112.80
-95.11
-72.93
-48.05
-20.96
8.28
39.61
72.47
101.39
119.37
130.64
139.00
143.23
144.17
143.28
142.18
142.25
144.44
149.68
158.21
167.59
174.50
176.62
172.58
162.66
148.65
133.10
118.60
106.58
95.75
84.02
70.34
54.70
38.11
22.03
7.55
-4.81
-15.22
-25.13
-35.94
-48.25
-62.31
-78.25
-96.32
-116.88
-140.26
-166.29
-194.48
-223.64
-251.86
-277.27
-298.31
-313.86
-323.27
-326.34
-323.11
-314.05
-299.86
-281.27
-258.77
-232.30
-201.20
-164.74
-123.15
-77.70
-30.67
15.27
57.86
95.85
129.30
159.36
187.53
214.12
239.17
262.81
285.21
306.16
324.79
339.94
350.70
356.66
356.03
348.29
334.80
318.53
302.58
288.73
276.79
264.57
248.21
220.19
175.51
114.41
42.31
-33.55
-107.77
-178.46
-246.74
-314.92
-388.07
-466.58
-544.60
-612.09
-659.86
-683.26
-682.50
-660.77
-596.76
-484.23
-336.79
-183.38
-50.67
48.59
114.23
152.25
170.94
177.72
173.36
159.34
140.15
122.73
113.17
114.04
123.78
138.89
155.29
166.59
169.57
165.09
156.82
148.13
139.85
130.73
119.07
103.91
83.50
57.63
27.64
-4.34
-36.51
-67.91
-98.26
-127.54
-156.05
-185.08
-214.82
-243.29
-266.27
-279.05
-278.62
-265.24
-242.56
-216.11
-191.03
-169.34
-149.23
-126.47
-97.08
-59.35
-13.98
37.32
93.29
153.63
218.27
285.75
352.14
411.03
455.64
481.32
487.28
476.27
453.21
423.38
391.10
359.18
328.12
297.58
267.75
240.02
216.31
198.13
185.75
178.09
173.00
166.36
154.51
136.74
115.69
95.41
78.85
66.86
58.42
51.83
42.92
27.91
6.37
-18.48
-42.36
-62.71
-79.33
-93.75
-108.13
-128.25
-160.29
-206.70
-265.23
-331.77
-403.42
-479.36
-560.03
-619.68
-636.07
-605.14
-543.04
-471.42
-403.87
-344.97
-294.64
-251.20
-221.67
-206.38
-207.74
-226.05
-257.22
-294.06
-328.88
-355.30
-369.51
-362.01
-334.41
-295.53
-254.36
-216.52
-183.90
-155.86
-130.80
-106.36
-80.81
-55.80
-34.07
-14.46
6.59
32.45
63.93
98.46
134.07
168.85
200.27
226.54
251.44
279.42
312.61
349.32
383.82
413.73
438.15
456.49
469.25
483.64
505.92
537.92
576.15
611.80
642.26
667.24
687.09
702.64
721.84
750.23
787.72
828.69
862.35
886.68
901.52
904.94
848.45
707.35
491.96
244.51
35.48
-128.64
-254.21
-350.00
-424.00
-480.18
-515.01
-526.94
-519.10
-499.40
-480.41
-465.47
-454.71
-447.89
-444.91
-440.60
-430.96
-415.31
-396.08
-378.89
-362.32
-343.39
-320.38
-293.53
-261.42
-224.01
-183.29
-142.79
-107.72
-78.76
-55.34
-37.30
-25.00
-17.20
-12.73
-11.19
-13.44
-21.77
-36.09
-54.81
-75.19
-94.38
-110.43
-124.22
-140.12
-164.29
-201.48
-250.74
-304.35
-349.49
-372.23
-362.35
-317.25
-243.04
-152.62
-61.34
17.72
77.11
115.89
137.99
149.12
153.72
153.76
149.52
141.36
131.18
122.40
118.58
121.73
131.41
145.38
161.38
178.62
198.22
222.01
250.87
283.25
314.95
340.24
353.79
352.72
337.75
313.14
285.50
261.68
246.57
241.50
243.90
248.45
249.19
241.68
224.21
197.79
165.10
128.94
91.21
52.73
13.76
-25.25
-63.23
-98.56
-129.67
-155.61
-176.42
-193.11
-207.16
-219.99
-232.58
-245.10
-257.00
-267.21
-274.39
-277.43
-275.87
-270.45
-263.13
-256.82
-254.44
-257.78
-266.68
-278.83
-290.74
-298.99
-301.50
-298.23
-290.98
-282.80
-277.01
-276.39
-282.40
-294.45
-309.63
-323.00
-328.71
-321.67
-299.17
-261.78
-213.01
-158.09
-102.18
-49.19
-1.41
39.95
73.85
99.02
114.33
119.63
116.65
108.88
100.46
94.53
91.91
90.94
88.73
83.12
74.15
64.22
56.95
55.03
58.85
66.29
74.05
79.49
81.99
82.99
84.87
89.27
96.01
103.06
107.67
107.75
102.88
94.46
84.91
76.62
71.02
68.28
67.43
67.14
66.20
64.03
60.88
57.51
54.72
52.87
51.48
49.51
45.90
40.23
33.09
26.02
20.91
19.33
22.09
29.08
39.40
51.66
64.24
75.63
84.70
90.95
94.51
95.92
95.81
94.58
92.37
89.35
85.79
82.31
79.64
78.36
78.66
80.29
82.77
85.62
88.42
90.84
92.54
93.05
92.01
89.20
84.72
79.06
73.00
67.35
62.78
59.47
57.07
54.63
50.74
43.89
32.88
17.35
-2.01
-23.43
-44.58
-63.17
-77.78
-87.93
-94.05
-96.77
-96.47
-92.99
-86.10
-76.07
-64.24
-52.81
-44.19
-39.91
-39.95
-42.80
-46.22
-48.29
-48.26
-46.55
-44.26
-42.38
-41.43
-41.41
-42.38
-44.70
-49.16
-56.53
-67.15
-80.50
-95.57
-111.22
-126.54
-140.64
-152.22
-159.10
-158.34
-147.02
-123.51
-88.56
-45.36
1.23
46.52
87.60
124.15
157.90
191.00
224.39
256.90
285.63
307.49
320.62
325.22
323.16
316.81
307.83
296.63
282.84
266.02
246.32
224.29
200.36
174.51
146.26
115.21
81.67
46.97
13.12
-17.87
-44.60
-66.62
-84.42
-99.06
-111.91
-124.22
-136.99
-150.65
-164.89
-178.83
-191.17
-200.83
-207.29
-210.77
-212.10
-212.22
-211.72
-210.61
-208.25
-203.71
-196.10
-184.92
-170.35
-153.05
-134.16
-114.97
-96.78
-80.66
-67.17
-56.22
-46.93
-37.95
-27.83
-15.82
-2.22
11.56
23.56
32.09
36.54
37.51
36.51
35.06
34.07
33.61
33.38
33.64
35.51
40.69
50.47
64.53
80.89
96.66
109.59
119.18
126.46
132.59
137.33
138.57
133.29
119.53
97.82
71.02
42.38
13.24
-18.00
-54.75
-99.85
-153.37
-212.17
-271.28
-325.96
-373.17
-411.52
-440.42
-459.20
-467.25
-464.82
-453.89
-438.13
-421.90
-408.65
-399.87
-394.92
-391.79
-388.13
-381.88
-371.61
-356.29
-335.56
-309.72
-279.81
-247.55
-214.85
-183.34
-153.87
-126.39
-100.24
-74.62
-49.15
-24.03
-0.09
21.57
40.01
55.02
67.40
78.78
91.04
105.49
122.16
139.75
156.11
169.09
177.35
180.80
180.68
179.32
179.78
185.06
197.15
216.06
239.38
262.69
280.97
290.50
290.19
281.70
268.16
252.53
236.36
219.79
202.75
186.43
174.11
170.62
180.51
205.95
245.09
291.90
337.72
373.86
394.27
397.16
384.75
361.66
332.45
299.97
264.82
225.94
181.92
131.86
75.83
14.94
-48.60
-111.49
-169.67
-218.95
-256.14
-279.88
-291.02
-292.00
-285.74
-274.80
-260.97
-245.38
-228.88
-211.98
-194.72
-176.44
-156.08
-132.88
-107.06
-80.13
-54.44
-32.35
-15.41
-3.88
3.12
7.14
9.88
12.69
16.34
21.03
26.48
32.07
37.13
41.32
44.65
47.52
50.42
53.65
57.12
60.29
62.56
63.49
63.06
61.68
59.87
58.07
56.39
54.66
52.62
50.05
46.91
43.35
39.65
36.12
32.93
30.19
27.76
25.36
22.68
19.49
15.80
11.73
7.51
3.27
-1.00
-5.44
-10.22
-15.47
-21.35
-27.92
-35.19
-42.91
-50.40
-56.57
-60.13
-59.97
-55.49
-46.78
-34.61
-20.23
-5.14
9.10
21.12
30.03
35.57
38.19
38.80
38.37
37.61
36.72
35.56
34.02
32.19
30.51
29.53
29.62
30.85
32.95
35.58
38.47
41.58
44.97
48.61
52.23
55.38
57.52
58.34
57.79
56.21
54.11
51.95
49.95
48.12
46.35
44.56
42.77
41.11
39.65
38.35
37.05
35.64
34.06
32.36
30.57
28.62
26.28
23.27
19.43
14.92
10.16
5.78
2.34
0.09
-1.09
-1.73
-2.60
-4.34
-7.16
-10.56
-13.37
-14.08
-11.37
-4.65
5.76
18.77
33.10
47.83
62.61
77.54
92.81
107.99
121.67
131.31
133.66
125.27
103.42
67.10
17.89
-39.75
-99.00
-152.11
-192.43
-216.33
-224.34
-220.76
-212.07
-204.58
-202.46
-206.76
-215.76
-226.25
-234.99
-239.49
-238.38
-231.17
-217.89
-198.85
-174.62
-146.00
-114.06
-80.27
-46.20
-13.35
17.24
45.06
70.34
93.59
115.17
134.85
151.72
164.54
172.41
175.48
175.05
173.18
171.77
171.86
173.20
174.58
174.39
171.35
164.96
155.53
143.81
130.48
115.92
100.07
82.81
64.22
44.77
25.36
7.17
-8.58
-20.81
-28.79
-32.21
-31.40
-27.22
-20.91
-13.85
-7.22
-1.79
2.20
4.84
6.39
7.12
7.19
6.72
5.87
4.91
4.20
4.13
4.93
6.62
9.03
11.84
14.77
17.68
20.53
23.28
25.80
27.82
29.08
29.40
28.87
27.78
26.52
25.39
24.43
23.50
22.31
20.62
18.40
15.75
12.88
9.99
7.16
4.36
1.42
-1.85
-5.60
-9.82
-14.37
-18.95
-23.21
-26.87
-29.84
-32.30
-34.63
-37.32
-40.86
-45.46
-50.96
-56.66
-61.45
-63.95
-62.95
-57.82
-48.75
-36.75
-23.31
-9.96
2.09
12.09
19.77
25.19
28.48
29.92
29.79
28.48
26.38
23.93
21.52
19.46
18.00
17.30
17.44
18.36
19.88
21.75
23.66
25.35
26.57
27.11
26.84
25.71
23.75
21.08
17.92
14.49
10.94
7.33
3.61
-0.30
-4.45
-8.78
-13.15
-17.39
-21.44
-25.31
-29.11
-32.97
-36.96
-41.12
-45.39
-49.71
-53.91
-57.90
-61.60
-65.21
-69.10
-73.83
-79.72
-86.59
-93.42
-98.49
-99.75
-95.44
-84.68
-67.72
-45.93
-21.36
3.63
26.86
46.61
61.81
72.05
77.54
78.94
77.06
72.67
66.26
58.30
49.38
40.58
33.46
29.82
31.05
37.56
48.47
61.78
75.05
86.29
94.68
100.82
106.51
114.06
125.31
140.68
158.33
174.03
182.09
177.18
156.76
122.80
81.96
43.62
16.50
5.20
8.23
18.69
27.11
25.08
8.35
-21.99
-60.32
-98.31
-127.12
-139.35
-130.65
-101.06
-55.82
-4.68
40.34
68.48
73.79
56.79
23.70
-16.60
-56.03
-89.42
-114.76
-131.85
-140.85
-142.08
-136.76
-127.92
-120.24
-118.44
-124.75
-137.07
-149.07
-152.04
-137.91
-102.43
-46.96
21.19
90.32
147.31
181.35
187.17
166.78
128.52
83.86
43.21
12.60
-7.48
-20.55
-31.12
-41.85
-52.02
-57.96
-54.66
-37.85
-6.04
38.27
88.29
134.14
165.59
175.64
163.10
133.12
94.99
58.31
29.63
10.95
0.53
-4.89
-8.16
-10.70
-12.93
-15.05
-17.53
-21.06
-26.19
-33.16
-42.01
-52.88
-66.14
-81.96
-99.63
-117.01
-130.06
-133.23
-120.80
-89.00
-38.53
23.88
86.14
134.05
156.29
148.80
116.38
70.55
24.64
-11.49
-34.54
-47.36
-56.15
-66.76
-82.09
-101.49
-121.50
-137.04
-142.35
-132.10
-103.01
-56.02
2.35
60.58
105.13
125.07
116.20
82.40
33.70
-17.84
-62.34
-94.42
-112.98
-119.44
-115.84
-104.08
-85.94
-63.46
-38.45
-11.69
17.56
50.63
87.39
124.51
155.02
170.34
164.00
134.90
88.24
33.66
-18.62
-61.38
-92.20
-112.83
-127.12
-138.61
-149.32
-159.52
-168.06
-172.90
-171.29
-160.34
-137.83
-103.43
-59.55
-11.50
33.68
69.22
90.62
96.76
89.92
74.57
55.79
37.87
23.52
13.74
8.34
6.42
6.81
8.33
9.89
10.67
10.24
8.70
6.64
4.93
4.29
4.97
6.72
8.86
10.63
11.56
11.59
11.05
10.36
9.78
9.35
8.75
7.56
5.48
2.46
-1.31
-5.39
-9.26
-12.46
-14.70
-15.90
-16.22
-15.96
-15.50
-15.16
-15.13
-15.41
-15.88
-16.36
-16.76
-17.16
-17.79
-18.99
-21.13
-24.38
-28.71
-33.85
-39.21
-43.91
-46.95
-47.34
-44.39
-37.93
-28.36
-16.70
-4.24
7.76
18.32
26.94
33.48
38.05
40.86
42.08
41.95
40.81
39.07
37.25
35.81
35.05
35.07
35.72
36.80
38.05
39.29
40.35
41.06
41.31
41.03
40.19
38.82
36.98
34.67
31.86
28.50
24.60
20.36
16.13
12.27
9.08
6.66
4.92
3.62
2.52
1.39
0.09
-1.54
-3.55
-5.91
-8.50
-11.04
-13.26
-14.94
-16.07
-16.86
-17.58
-18.51
-19.74
-21.24
-22.96
-24.88
-27.16
-30.03
-33.75
-38.48
-44.24
-50.81
-57.63
-63.83
-68.27
-69.75
-67.35
-60.72
-50.31
-37.25
-23.05
-9.18
3.20
13.44
21.31
26.89
30.39
32.15
32.54
32.05
31.17
30.29
29.70
29.51
29.72
30.29
31.22
32.55
34.28
36.37
38.63
40.79
42.49
43.38
43.22
41.97
39.82
37.17
34.49
32.21
30.50
29.24
28.01
26.27
23.58
19.83
15.25
10.44
6.03
2.49
-0.19
-2.39
-4.70
-7.63
-11.36
-15.63
-19.88
-23.58
-26.49
-28.70
-30.62
-32.77
-35.43
-38.61
-42.07
-45.43
-48.31
-50.52
-52.12
-53.43
-54.95
-57.28
-60.97
-66.22
-72.69
-79.42
-84.89
-87.40
-85.58
-78.79
-67.38
-52.53
-35.92
-19.22
-3.81
9.42
20.00
27.79
32.84
35.38
35.74
34.43
32.05
29.26
26.68
24.82
24.03
24.47
26.06
28.64
31.97
35.80
39.88
43.88
47.39
49.96
51.21
50.96
49.39
46.86
43.86
40.74
37.55
34.16
30.25
25.62
20.33
14.70
9.26
4.48
0.65
-2.36
-5.01
-7.91
-11.54
-16.04
-21.13
-26.26
-30.92
-34.81
-37.99
-40.87
-44.04
-48.10
-53.44
-60.14
-67.68
-74.93
-80.24
-81.85
-78.43
-69.54
-55.88
-39.16
-21.45
-4.66
9.93
21.80
31.00
37.82
42.57
45.45
46.60
46.30
44.97
43.19
41.57
40.57
40.44
41.19
42.62
44.46
46.48
48.52
50.43
52.05
53.15
53.50
52.91
51.37
48.93
45.79
42.13
38.12
33.84
29.38
24.82
20.33
16.11
12.33
9.11
6.43
4.15
2.09
0.09
-1.96
-4.11
-6.38
-8.83
-11.61
-14.94
-18.94
-23.63
-28.82
-34.20
-39.44
-44.34
-48.90
-53.31
-57.85
-62.90
-68.82
-75.90
-84.19
-93.19
-101.71
-108.00
-110.09
-106.49
-96.68
-81.44
-62.56
-42.32
-22.83
-5.57
8.69
19.83
28.09
33.87
37.57
39.60
40.38
40.33
39.87
39.45
39.45
40.10
41.46
43.41
45.72
48.11
50.38
52.34
53.76
54.38
53.95
52.34
49.64
46.15
42.37
38.74
35.52
32.80
30.42
28.13
25.73
23.11
20.29
17.41
14.61
12.05
9.76
7.76
6.00
4.41
2.91
1.48
0.20
-0.91
-1.90
-2.92
-4.11
-5.62
-7.62
-10.21
-13.34
-16.89
-20.69
-24.61
-28.65
-32.81
-37.23
-42.34
-48.55
-55.97
-64.10
-71.69
-76.95
-78.02
-72.92
-60.86
-42.64
-20.37
3.32
26.11
46.47
63.66
77.49
89.33
100.10
109.88
118.07
124.08
127.96
130.47
132.64
135.31
140.96
150.74
164.02
178.74
192.66
204.39
213.43
219.66
222.82
225.23
228.06
230.74
231.40
228.08
219.83
206.93
190.46
156.69
101.52
30.13
-45.51
-114.42
-172.01
-219.39
-259.42
-292.82
-321.53
-342.79
-354.06
-354.67
-346.07
-330.54
-309.89
-283.93
-253.63
-220.99
-186.00
-149.11
-111.26
-73.85
-38.29
-5.82
22.62
45.94
63.32
75.86
84.41
88.93
88.57
82.42
70.35
53.26
32.47
9.39
-13.93
-35.96
-55.60
-72.05
-84.81
-93.78
-99.51
-103.26
-106.39
-109.51
-112.53
-114.87
-115.81
-114.72
-111.05
-104.24
-93.77
-79.26
-60.88
-39.59
-17.27
3.68
20.94
32.85
38.76
39.07
35.13
28.81
22.18
16.97
14.18
13.78
14.77
15.58
14.78
11.82
7.33
2.88
0.23
0.42
2.96
5.61
4.93
-2.53
-18.97
-44.22
-75.35
-107.28
-134.00
-150.39
-153.51
-143.21
-121.71
-92.37
-58.45
-22.37
14.19
49.81
82.82
111.36
133.99
150.24
160.91
167.61
171.88
174.36
174.51
171.01
162.66
149.15
131.40
111.43
91.80
75.09
63.22
57.15
56.55
59.87
64.67
68.14
67.92
62.69
52.47
38.55
22.92
7.56
-6.10
-17.43
-26.56
-34.01
-40.27
-45.64
-50.18
-53.99
-57.30
-60.55
-64.10
-67.93
-71.44
-73.55
-73.11
-69.32
-62.00
-51.51
-38.47
-23.50
-7.16
9.85
26.60
41.97
54.85
64.54
70.96
74.51
75.79
75.20
72.87
68.72
62.84
55.74
48.31
41.56
36.24
32.69
30.83
30.48
31.41
33.51
36.54
40.20
44.18
48.55
53.99
61.72
72.97
88.22
106.60
125.83
142.72
153.95
156.87
150.10
133.77
109.70
81.04
51.72
25.48
4.77
-9.98
-20.24
-28.59
-37.38
-47.55
-58.43
-68.17
-74.96
-77.88
-77.18
-73.90
-69.44
-64.90
-60.92
-57.73
-55.43
-54.31
-54.70
-56.74
-59.99
-63.57
-66.30
-67.17
-65.68
-62.08
-57.41
-52.92
-49.49
-47.09
-45.21
-43.05
-39.98
-35.73
-30.53
-25.55
-22.01
-20.68
-20.99
-22.20
-23.24
-23.04
-20.31
-14.13
-5.23
4.92
14.74
24.24
32.82
39.82
44.53
46.93
47.36
44.76
38.58
29.35
20.63
14.14
9.59
4.24
-5.24
-21.75
-48.37
-85.20
-128.81
-171.18
-207.04
-234.63
-255.42
-271.07
-269.65
-242.98
-190.45
-136.73
-93.42
-66.50
-53.16
-51.38
-56.89
-64.22
-70.68
-75.39
-78.60
-78.04
-73.28
-64.48
-52.42
-37.30
-19.40
-1.01
15.61
29.14
41.63
54.29
67.68
81.46
95.54
109.76
122.83
133.46
140.90
146.39
150.50
153.49
155.28
156.07
156.01
154.47
150.64
143.92
134.84
123.99
112.39
101.28
92.01
85.32
80.86
77.56
74.10
69.57
63.07
54.46
44.21
33.05
21.32
8.51
-6.53
-25.17
-48.64
-77.70
-111.48
-147.48
-182.29
-212.66
-236.46
-252.91
-262.32
-266.11
-266.45
-264.47
-259.60
-249.78
-232.36
-205.25
-167.61
-119.99
-60.54
6.17
70.29
120.72
150.75
160.72
156.22
144.71
134.98
129.60
127.37
125.93
122.95
117.09
108.09
96.57
82.25
66.59
51.28
37.88
28.07
23.25
24.02
29.60
37.88
46.11
52.42
55.79
56.51
55.94
55.62
56.38
57.88
58.92
58.34
55.92
52.13
48.00
44.68
42.89
42.68
43.45
44.23
44.23
43.25
41.45
39.19
36.68
33.65
29.36
22.86
13.49
1.37
-12.42
-26.10
-37.51
-44.52
-45.48
-39.59
-27.23
-10.32
7.75
22.83
31.25
31.33
24.21
13.43
3.47
-2.30
-2.86
0.51
5.37
9.76
13.02
15.66
18.46
21.66
24.77
27.11
28.47
29.25
30.06
30.97
31.11
28.90
22.89
12.55
-1.28
-16.56
-30.79
-42.16
-50.41
-57.39
-66.59
-82.02
-106.51
-140.19
-179.80
-219.51
-252.64
-273.89
-280.93
-274.66
-258.34
-236.06
-211.51
-187.38
-165.26
-145.58
-127.78
-110.54
-92.57
-73.64
-55.46
-41.48
-35.37
-38.90
-50.35
-64.54
-74.89
-76.16
-66.63
-48.39
-25.76
-2.76
18.60
38.70
59.15
81.29
105.10
129.17
151.46
170.56
186.22
199.43
211.48
222.85
232.52
238.08
236.72
226.79
208.84
185.87
162.19
141.83
126.94
117.21
110.47
103.95
95.66
85.10
73.18
61.39
51.09
42.88
36.48
31.05
25.62
19.60
12.98
6.26
0.21
-4.50
-7.68
-9.65
-11.09
-12.79
-15.37
-19.13
-24.00
-29.70
-35.76
-41.55
-46.36
-49.36
-49.83
-47.30
-41.76
-33.76
-24.30
-14.54
-5.59
1.76
7.15
10.65
12.55
13.31
13.34
13.00
12.47
11.90
11.37
10.94
10.64
10.45
10.34
10.22
10.02
9.65
9.04
8.07
6.64
4.64
2.02
-1.12
-4.55
-7.99
-11.16
-13.85
-16.03
-17.76
-19.31
-20.94
-22.89
-25.27
-28.03
-30.93
-33.70
-36.18
-38.37
-40.53
-43.08
-46.42
-50.75
-55.82
-60.86
-64.69
-66.04
-63.95
-58.06
-48.81
-37.25
-24.76
-12.64
-1.79
7.34
14.67
20.37
24.66
27.71
29.64
30.58
30.65
30.01
28.84
27.34
25.70
24.05
22.49
21.05
19.75
18.62
17.71
17.01
16.48
15.93
15.04
13.54
11.24
8.25
4.94
1.81
-0.78
-2.73
-4.29
-5.91
-7.94
-10.47
-13.31
-16.06
-18.35
-20.05
-21.31
-22.41
-23.74
-25.69
-28.54
-32.57
-37.83
-44.08
-50.59
-56.18
-59.45
-59.18
-54.74
-46.31
-34.84
-21.77
-8.52
3.72
14.20
22.49
28.45
32.07
33.51
33.13
31.44
29.02
26.42
24.00
21.97
20.34
19.02
17.92
16.97
16.25
15.88
15.96
16.50
17.36
18.23
18.77
18.66
17.70
15.86
13.29
10.27
7.20
4.50
2.47
1.21
0.58
0.19
-0.46
-1.81
-4.09
-7.29
-11.13
-15.20
-19.07
-22.45
-25.30
-27.82
-30.38
-33.42
-37.28
-42.06
-47.44
-52.71
-56.76
-58.34
-56.44
-50.63
-41.26
-29.38
-16.45
-3.97
6.96
15.73
22.24
26.69
29.35
30.51
30.41
29.28
27.48
25.38
23.38
21.70
20.46
19.56
18.92
18.51
18.41
18.74
19.53
20.68
21.87
22.72
22.86
22.03
20.18
17.45
14.18
10.77
7.56
4.79
2.47
0.45
-1.51
-3.61
-5.95
-8.48
-11.04
-13.47
-15.67
-17.60
-19.35
-21.11
-23.16
-25.90
-29.65
-34.47
-39.99
-45.31
-49.13
-50.09
-47.30
-40.60
-30.71
-19.03
-7.07
3.86
12.99
20.07
25.15
28.39
29.98
30.11
29.13
27.49
25.76
24.39
23.62
23.40
23.52
23.74
23.98
24.29
24.85
25.76
26.95
28.11
28.81
28.66
27.46
25.27
22.38
19.07
15.57
11.96
8.26
4.51
0.80
-2.67
-5.75
-8.34
-10.45
-12.15
-13.64
-15.05
-16.47
-17.93
-19.37
-20.76
-22.05
-23.28
-24.54
-25.98
-27.75
-29.99
-32.82
-36.24
-40.05
-43.61
-45.98
-46.02
-42.82
-36.09
-26.36
-14.91
-3.29
7.09
15.32
21.14
24.71
26.42
26.73
26.07
24.82
23.35
21.96
20.81
19.91
19.17
18.47
17.72
16.92
16.16
15.56
15.16
14.94
14.76
14.46
13.84
12.81
11.37
9.61
7.72
5.93
4.45
3.41
2.81
2.48
2.21
1.77
1.08
0.21
-0.71
-1.50
-2.15
-2.74
-3.44
-4.38
-5.63
-7.15
-8.81
-10.50
-12.17
-13.81
-15.51
-17.41
-19.67
-22.48
-25.96
-30.02
-34.33
-38.17
-40.60
-40.70
-37.88
-32.18
-24.20
-15.02
-5.79
2.53
9.35
14.43
17.80
19.65
20.26
19.87
18.79
17.31
15.66
14.06
12.68
11.63
10.91
10.49
10.21
9.93
9.57
9.17
8.86
8.73
8.75
8.75
8.43
7.52
5.91
3.69
1.14
-1.40
-3.68
-5.55
-7.02
-8.16
-9.13
-10.04
-11.02
-12.09
-13.13
-13.99
-14.45
-14.38
-13.81
-12.93
-12.06
-11.58
-11.81
-12.97
-15.01
-17.62
-20.15
-21.80
-21.79
-19.65
-15.34
-9.35
-2.52
4.15
9.85
14.02
16.48
17.35
16.97
15.74
13.97
11.90
9.70
7.45
5.29
3.44
2.08
1.33
1.22
1.63
2.41
3.35
4.38
5.47
6.62
7.83
8.96
9.79
10.06
9.59
8.38
6.65
4.71
2.90
1.39
0.14
-1.04
-2.37
-4.02
-6.00
-8.22
-10.58
-12.94
-15.26
-17.43
-19.36
-20.97
-22.22
-23.20
-24.17
-25.44
-27.36
-29.98
-33.03
-35.81
-37.30
-36.56
-32.94
-26.44
-17.72
-7.94
1.60
9.83
16.09
20.20
22.29
22.69
21.75
19.84
17.36
14.71
12.25
10.27
8.81
7.87
7.39
7.28
7.52
8.09
8.96
10.05
11.24
12.39
13.35
14.00
14.22
14.01
13.43
12.65
11.86
11.15
10.51
9.80
8.83
7.44
5.62
3.50
1.27
-0.90
-2.89
-4.71
-6.47
-8.29
-10.29
-12.47
-14.78
-17.10
-19.28
-21.24
-22.96
-24.56
-26.27
-28.39
-31.23
-35.02
-39.68
-44.73
-49.24
-52.01
-51.89
-48.25
-41.16
-31.47
-20.49
-9.62
0.02
7.78
13.44
17.15
19.22
20.02
19.92
19.30
18.45
17.61
16.95
16.58
16.56
16.86
17.41
18.12
18.90
19.77
20.72
21.73
22.72
23.46
23.67
23.10
21.62
19.34
16.55
13.64
10.94
8.63
6.68
4.91
3.17
1.37
-0.39
-1.98
-3.35
-4.58
-5.92
-7.63
-9.87
-12.60
-15.60
-18.55
-21.16
-23.31
-25.02
-26.55
-28.28
-30.67
-34.10
-38.64
-43.97
-49.22
-53.21
-54.67
-52.67
-46.90
-37.80
-26.38
-14.00
-2.00
8.56
16.99
23.02
26.67
28.19
27.95
26.38
23.93
21.09
18.27
15.86
14.16
13.35
13.46
14.43
16.10
18.21
20.44
22.45
23.89
24.49
24.16
22.97
21.16
19.02
16.80
14.64
12.53
10.39
8.12
5.67
3.15
0.74
-1.40
-3.15
-4.56
-5.80
-7.10
-8.63
-10.43
-12.44
-14.53
-16.59
-18.62
-20.71
-23.10
-26.12
-30.11
-35.42
-42.10
-49.82
-57.62
-64.05
-67.41
-66.33
-60.22
-49.57
-35.83
-20.99
-6.93
5.05
14.41
21.26
26.03
29.21
31.11
31.97
32.02
31.57
30.93
30.44
30.31
30.64
31.40
32.57
34.12
36.03
38.30
40.79
43.24
45.24
46.37
46.37
45.20
43.07
40.41
37.61
34.97
32.55
30.29
28.01
25.59
23.03
20.48
18.15
16.22
14.76
13.63
12.56
11.25
9.58
7.56
5.33
3.07
0.82
-1.52
-4.21
-7.45
-11.39
-15.96
-20.92
-25.88
-30.47
-34.44
-37.69
-40.38
-42.96
-45.99
-50.04
-55.41
-61.81
-68.25
-73.11
-74.54
-71.10
-62.27
-48.64
-31.83
-13.96
2.89
17.20
28.15
35.58
39.91
41.78
42.00
41.26
40.17
39.05
38.04
37.12
36.24
35.39
34.58
33.88
33.36
33.05
32.93
32.96
33.04
33.06
32.88
32.34
31.33
29.80
27.86
25.71
23.57
21.60
19.83
18.17
16.49
14.77
13.06
11.54
10.28
9.25
8.27
7.02
5.36
3.31
1.07
-1.11
-3.12
-4.98
-6.90
-9.08
-11.65
-14.58
-17.75
-20.96
-23.98
-26.61
-28.76
-30.51
-32.10
-33.99
-36.69
-40.60
-45.70
-51.40
-56.55
-59.63
-59.26
-54.66
-45.92
-34.06
-20.66
-7.43
4.29
13.68
20.54
25.05
27.60
28.66
28.65
27.95
26.96
26.02
25.39
25.27
25.71
26.62
27.75
28.88
29.84
30.59
31.21
31.80
32.40
32.85
32.90
32.30
30.84
28.56
25.66
22.50
19.46
16.82
14.67
12.93
11.33
9.61
7.58
5.26
2.82
0.58
-1.21
-2.48
-3.35
-4.13
-5.18
-6.78
-9.04
-11.84
-14.96
-18.13
-21.18
-24.10
-27.06
-30.36
-34.35
-39.34
-45.45
-52.40
-59.39
-65.15
-68.19
-67.21
-61.62
-51.75
-38.88
-24.78
-11.27
0.32
9.41
16.01
20.56
23.59
25.57
26.82
27.57
28.06
28.49
29.03
29.76
30.69
31.68
32.63
33.43
34.07
34.62
35.12
35.53
35.67
35.25
34.00
31.84
28.95
25.67
22.43
19.59
17.30
15.52
14.06
12.66
11.13
9.40
7.56
5.77
4.23
3.10
2.35
1.85
1.38
0.69
-0.37
-1.85
-3.64
-5.60
-7.58
-9.58
-11.75
-14.30
-17.44
-21.23
-25.50
-29.88
-33.97
-37.49
-40.44
-43.09
-45.92
-49.40
-53.86
-59.23
-64.94
-69.92
-72.80
-72.26
-67.41
-58.19
-45.39
-30.43
-15.09
-0.99
10.70
19.42
25.17
28.41
29.79
30.09
29.96
29.87
30.04
30.46
31.09
31.86
32.74
33.73
34.85
36.06
37.33
38.65
39.99
41.36
42.60
43.53
43.85
43.35
41.94
39.69
36.84
33.70
30.56
27.60
24.91
22.41
19.99
17.53
14.99
12.43
9.88
7.48
5.24
3.20
1.34
-0.39
-2.04
-3.73
-5.52
-7.43
-9.39
-11.22
-12.82
-14.15
-15.35
-16.69
-18.44
-20.70
-23.41
-26.36
-29.30
-32.08
-34.67
-37.17
-39.74
-42.53
-45.71
-49.48
-53.98
-59.11
-64.36
-68.71
-70.83
-69.42
-63.74
-53.91
-40.95
-26.45
-12.14
0.61
10.95
18.65
23.86
26.98
28.47
28.80
28.40
27.63
26.74
25.93
25.33
25.02
25.04
25.34
25.82
26.40
27.02
27.68
28.42
29.19
29.84
30.13
29.78
28.62
26.63
23.98
21.03
18.12
15.59
13.53
11.89
10.51
9.15
7.71
6.18
4.69
3.40
2.45
1.78
1.18
0.33
-1.10
-3.34
-6.43
-10.22
-14.38
-18.54
-22.41
-25.84
-29.00
-32.27
-36.16
-41.15
-47.41
-54.66
-62.06
-68.33
-71.98
-71.75
-67.03
-58.05
-45.93
-32.28
-18.79
-6.76
3.01
10.32
15.26
18.06
19.00
18.38
16.64
14.31
12.05
10.44
9.91
10.59
12.38
15.00
18.11
21.42
24.72
27.83
30.54
32.64
33.91
34.26
33.75
32.56
31.00
29.36
27.84
26.52
25.34
24.07
22.38
19.98
16.74
12.75
8.37
4.08
0.27
-2.92
-5.59
-8.07
-10.69
-13.67
-16.99
-20.44
-23.68
-26.45
-28.66
-30.51
-32.46
-35.11
-39.02
-44.44
-51.09
-57.97
-63.45
-65.61
-62.82
-54.30
-40.45
-22.87
-3.85
14.21
29.49
40.99
48.50
52.43
53.40
52.10
49.18
45.35
41.32
37.71
34.99
33.28
32.42
32.02
31.70
31.24
30.66
30.18
29.99
30.13
30.39
30.49
30.14
29.27
27.98
26.47
24.88
23.23
21.38
19.19
16.57
13.55
10.27
6.97
3.84
1.02
-1.50
-3.80
-6.11
-8.60
-11.39
-14.44
-17.63
-20.81
-23.95
-27.16
-30.70
-34.94
-40.21
-46.63
-53.89
-61.26
-67.46
-71.07
-70.79
-65.91
-56.57
-43.75
-29.06
-14.27
-0.89
10.11
18.38
24.07
27.58
29.44
30.09
29.92
29.26
28.36
27.50
26.88
26.69
27.01
27.82
29.05
30.50
32.00
33.31
34.30
34.83
34.85
34.26
32.93
30.73
27.57
23.48
18.67
13.49
8.36
3.64
-0.48
-3.96
-6.94
-9.64
-12.30
-15.11
-18.13
-21.33
-24.51
-27.45
-30.06
-32.42
-34.83
-37.71
-41.52
-46.63
-53.09
-60.52
-67.99
-74.13
-77.28
-76.01
-69.61
-58.35
-43.46
-26.88
-10.52
4.07
16.08
25.31
31.93
36.31
38.82
39.84
39.73
38.93
37.84
36.79
36.01
35.54
35.34
35.26
35.16
34.95
34.58
34.05
33.40
32.61
31.64
30.34
28.61
26.34
23.51
20.18
16.54
12.87
9.42
6.40
3.82
1.58
-0.56
-2.82
-5.39
-8.35
-11.62
-15.04
-18.40
-21.53
-24.39
-27.12
-30.02
-33.51
-38.03
-43.90
-51.11
-59.11
-66.77
-72.54
-74.76
-72.17
-64.37
-52.00
-36.53
-19.92
-4.03
9.78
20.84
29.03
34.61
37.98
39.54
39.65
38.72
37.13
35.29
33.58
32.27
31.53
31.36
31.65
32.24
32.94
33.61
34.16
34.49
34.54
34.19
33.29
31.73
29.42
26.36
22.68
18.57
14.27
9.97
5.85
1.98
-1.67
-5.18
-8.70
-12.34
-16.12
-19.95
-23.61
-26.88
-29.58
-31.72
-33.54
-35.42
-37.90
-41.48
-46.50
-52.92
-60.15
-66.98
-71.72
-72.71
-68.72
-59.53
-46.02
-30.00
-13.65
1.11
13.09
21.92
27.83
31.37
33.01
33.15
32.14
30.34
28.21
26.29
25.05
24.78
25.52
27.07
29.06
31.04
32.61
33.49
33.55
32.76
31.14
28.71
25.41
21.27
16.39
11.07
5.73
0.81
-3.37
-6.72
-9.40
-11.71
-13.94
-16.24
-18.65
-21.01
-23.13
-24.89
-26.26
-27.39
-28.59
-30.24
-32.73
-36.37
-41.36
-47.69
-54.92
-62.09
-67.78
-70.20
-67.77
-59.65
-46.11
-28.62
-9.39
9.23
25.42
38.14
47.17
52.86
55.81
56.65
56.03
54.54
52.74
51.09
49.95
49.43
49.41
49.63
49.71
49.33
48.36
46.86
45.08
43.31
41.68
40.13
38.34
36.00
32.86
28.86
24.24
19.34
14.56
10.19
6.33
2.80
-0.69
-4.47
-8.73
-13.42
-18.27
-22.89
-26.99
-30.45
-33.42
-36.31
-39.64
-43.85
-49.17
-55.38
-61.66
-66.71
-68.97
-67.13
-60.54
-49.51
-35.27
-19.58
-4.28
9.20
20.00
27.87
32.91
35.44
35.78
34.37
31.70
28.44
25.28
22.89
21.69
21.80
23.00
24.88
26.95
28.86
30.42
31.56
32.24
32.29
31.43
29.39
26.03
21.62
16.64
11.72
7.40
3.89
1.07
-1.41
-3.98
-6.97
-10.52
-14.59
-18.94
-23.25
-27.20
-30.65
-33.68
-36.70
-40.32
-45.19
-51.61
-59.28
-67.07
-73.30
-76.06
-73.90
-66.25
-53.70
-37.82
-20.64
-4.19
10.03
21.20
29.15
34.13
36.59
37.07
36.09
34.13
31.67
29.16
26.97
25.35
24.40
24.10
24.33
25.03
26.15
27.63
29.31
30.83
31.71
31.47
29.75
26.58
22.29
17.45
12.59
8.02
3.72
-0.55
-5.06
-9.93
-15.02
-19.97
-24.42
-28.15
-31.21
-33.93
-36.87
-40.66
-45.80
-52.43
-60.05
-67.44
-72.78
-74.14
-70.07
-60.21
-45.50
-27.92
-9.92
6.33
19.44
28.96
35.19
38.75
40.20
39.98
38.38
35.74
32.53
29.33
26.76
25.25
24.98
25.89
27.74
30.14
32.65
34.72
35.68
34.83
31.66
26.04
18.32
9.27
-0.24
-9.40
-17.77
-25.09
-31.25
-36.11
-39.49
-41.33
-41.81
-41.44
-41.02
-41.46
-43.61
-47.97
-54.57
-62.68
-70.82
-76.94
-78.98
-75.50
-66.18
-52.00
-34.92
-17.19
-0.79
13.06
23.88
31.68
36.84
39.74
40.83
40.55
39.37
37.76
36.05
34.53
33.38
32.70
32.61
33.15
34.28
35.80
37.39
38.61
39.04
38.37
36.53
33.66
30.06
26.00
21.67
17.04
11.95
6.24
-0.12
-6.91
-13.77
-20.29
-26.23
-31.64
-36.83
-42.32
-48.72
-56.53
-65.89
-76.30
-86.53
-94.58
-98.21
-95.60
-86.09
-70.53
-51.08
-30.59
-11.68
3.94
15.64
23.68
28.68
31.31
32.13
31.54
29.97
27.82
25.42
23.02
20.72
18.62
16.78
15.42
14.80
15.19
16.79
19.67
23.70
28.55
33.65
38.38
42.15
44.63
45.89
46.35
46.48
46.63
46.71
46.29
44.73
41.51
36.44
29.76
22.03
13.98
6.29
-0.61
-6.52
-11.52
-15.88
-20.07
-24.62
-30.05
-36.74
-44.63
-53.18
-61.26
-67.44
-70.38
-69.23
-63.88
-55.07
-44.10
-32.56
-21.90
-13.28
-7.35
-4.24
-3.57
-4.58
-6.29
-7.70
-8.03
-6.77
-3.74
1.01
7.32
14.98
23.81
33.60
44.15
55.18
66.31
76.86
85.93
92.36
94.96
92.82
85.57
73.69
58.64
42.67
28.50
18.65
14.70
16.70
23.12
31.28
38.28
42.09
42.16
39.43
35.55
31.95
29.08
26.19
21.97
15.29
5.80
-5.95
-18.96
-32.31
-45.39
-57.74
-68.64
-76.81
-80.53
-78.31
-69.66
-55.39
-37.59
-18.90
-1.71
12.50
23.32
31.16
36.76
40.75
43.36
44.56
44.25
42.54
39.87
36.84
34.06
31.81
30.05
28.40
26.46
24.01
21.14
18.10
15.12
12.34
9.67
6.99
4.17
1.22
-1.79
-4.65
-7.17
-9.17
-10.50
-11.16
-11.27
-11.11
-11.05
-11.41
-12.30
-13.59
-15.08
-16.64
-18.47
-21.16
-25.54
-32.34
-41.71
-52.86
-63.98
-72.71
-76.77
-74.72
-66.38
-52.91
-36.28
-18.67
-1.82
13.16
25.78
35.86
43.30
48.02
50.01
49.54
47.12
43.48
39.34
35.33
31.82
29.04
27.12
26.15
26.17
27.10
28.75
30.72
32.57
33.89
34.42
34.04
32.76
30.64
27.79
24.26
20.11
15.50
10.65
5.87
1.47
-2.31
-5.41
-7.99
-10.36
-12.96
-16.14
-20.00
-24.36
-28.79
-32.86
-36.28
-39.09
-41.71
-44.78
-49.01
-54.97
-62.82
-72.00
-81.11
-88.02
-90.45
-86.57
-75.80
-59.10
-38.74
-17.61
1.71
17.47
29.07
36.78
41.33
43.58
44.31
44.17
43.71
43.35
43.35
43.76
44.48
45.34
46.19
46.96
47.70
48.45
49.32
50.31
51.32
52.06
52.09
50.91
48.14
43.74
38.04
31.67
25.38
19.68
14.77
10.47
6.43
2.32
-1.95
-6.28
-10.40
-14.04
-17.10
-19.65
-21.97
-24.41
-27.28
-30.80
-34.94
-39.47
-43.99
-48.05
-51.34
-53.84
-55.88
-58.11
-61.33
-66.15
-72.67
-80.16
-87.03
-91.11
-90.33
-83.42
-70.39
-52.59
-32.29
-11.90
6.60
22.08
34.29
43.42
49.89
54.09
56.28
56.74
55.73
53.57
50.65
47.37
44.06
40.97
38.18
35.74
33.63
31.90
30.64
29.88
29.54
29.38
29.00
28.08
26.40
23.93
20.83
17.30
13.57
9.79
6.14
2.76
-0.27
-2.96
-5.45
-7.96
-10.70
-13.75
-17.01
-20.25
-23.18
-25.68
-27.78
-29.75
-32.06
-35.25
-39.81
-46.02
-53.79
-62.48
-70.83
-77.16
-79.68
-76.97
-68.46
-54.62
-36.90
-17.37
1.83
18.94
32.92
43.34
50.37
54.50
56.36
56.59
55.78
54.43
52.86
51.24
49.68
48.22
47.04
46.43
46.75
48.33
51.29
55.37
59.87
63.85
66.38
66.88
65.35
62.28
58.35
54.12
49.65
44.35
37.07
26.36
10.77
-10.66
-37.79
-68.82
-100.28
-127.58
-146.27
-153.47
-148.72
-133.79
-111.68
-85.45
-57.48
-29.53
-3.17
19.84
37.68
48.98
53.32
51.21
43.85
32.64
18.88
3.95
-10.60
-23.09
-32.14
-37.02
-37.82
-35.26
-30.44
-24.58
-19.04
-15.29
-14.71
-18.01
-24.92
-34.08
-43.50
-51.34
-56.62
-59.37
-60.35
-60.45
-60.20
-59.78
-59.36
-59.41
-60.81
-64.32
-69.74
-75.56
-79.25
-78.08
-70.59
-57.33
-40.61
-23.26
-7.45
5.84
16.18
22.86
24.64
20.40
10.55
-2.35
-14.07
-20.67
-20.53
-15.13
-8.19
-3.58
-3.47
-7.70
-14.41
-21.42
-27.14
-30.57
-30.84
-26.93
-18.02
-4.15
13.56
32.87
51.16
66.24
76.99
83.29
85.88
85.79
83.97
81.08
77.47
73.25
68.54
63.49
58.35
53.40
48.92
45.14
42.26
40.35
39.41
39.26
39.60
40.01
40.03
39.29
37.62
34.98
31.56
27.58
23.24
18.67
13.84
8.57
2.72
-3.73
-10.53
-17.16
-22.97
-27.33
-29.84
-30.50
-29.70
-28.17
-26.71
-26.04
-26.47
-27.77
-29.20
-29.71
-28.20
-24.02
-17.14
-8.27
1.42
10.65
18.39
24.14
28.00
30.39
31.90
32.96
33.74
34.13
33.84
32.48
29.74
25.54
20.00
13.47
6.40
-0.95
-8.55
-16.82
-26.58
-38.93
-54.84
-74.86
-98.67
-124.87
-151.10
-174.46
-192.08
-201.88
-203.01
-195.98
-182.30
-163.95
-142.86
-120.64
-98.66
-78.17
-60.34
-46.08
-35.59
-28.23
-22.58
-16.95
-10.00
-1.17
9.46
21.42
34.43
48.37
62.98
77.44
90.16
99.20
103.15
101.83
96.55
89.66
83.50
79.48
77.58
76.63
75.17
72.22
67.89
63.33
60.14
59.92
63.92
72.96
87.37
106.55
128.46
149.26
163.95
167.91
158.81
137.90
109.81
80.58
55.20
35.79
21.41
9.54
-2.00
-13.75
-24.66
-33.28
-39.06
-42.79
-46.13
-50.37
-55.68
-60.96
-64.64
-65.63
-64.02
-60.98
-58.17
-56.89
-57.49
-59.37
-61.37
-62.35
-61.61
-59.10
-55.33
-51.04
-47.00
-43.70
-41.21
-39.19
-37.00
-33.97
-29.64
-23.96
-17.25
-10.01
-2.77
4.15
10.66
16.92
23.25
30.14
38.11
47.61
58.76
71.16
83.76
95.10
103.72
108.67
109.86
108.16
105.08
102.14
100.23
99.11
97.40
93.07
84.24
70.10
51.39
30.40
10.20
-6.29
-17.25
-22.33
-22.56
-19.66
-15.39
-11.08
-7.43
-4.71
-2.98
-2.15
-2.15
-2.75
-3.66
-4.53
-5.10
-5.32
-5.41
-5.75
-6.73
-8.59
-11.22
-14.23
-17.02
-19.08
-20.14
-20.29
-19.96
-19.68
-19.91
-20.90
-22.59
-24.68
-26.80
-28.69
-30.28
-31.77
-33.46
-35.65
-38.52
-42.00
-45.85
-49.59
-52.63
-54.28
-53.91
-51.12
-45.81
-38.40
-29.69
-20.62
-12.03
-4.38
2.21
7.90
12.85
17.16
20.73
23.40
25.08
25.72
25.42
24.36
22.78
20.96
19.14
17.49
16.12
15.08
14.44
14.25
14.54
15.21
15.94
16.32
15.90
14.44
12.03
9.02
5.88
2.99
0.59
-1.32
-2.82
-3.96
-4.76
-5.26
-5.57
-5.88
-6.37
-7.17
-8.22
-9.46
-10.75
-12.10
-13.58
-15.23
-17.06
-18.94
-20.73
-22.33
-23.71
-24.92
-25.96
-26.88
-27.68
-28.43
-29.24
-30.29
-31.62
-33.16
-34.70
-36.04
-37.11
-38.05
-39.16
-40.71
-42.83
-45.39
-48.01
-50.13
-51.11
-50.39
-47.53
-42.48
-35.51
-27.27
-18.73
-10.84
-4.37
0.32
3.39
5.42
7.15
9.31
12.23
15.77
19.34
22.06
23.02
21.60
17.72
11.97
5.51
-0.18
-3.65
-3.86
-0.41
6.39
15.62
26.05
36.38
45.45
52.45
56.87
58.65
58.06
55.68
52.27
48.51
44.87
41.50
38.25
34.89
31.35
27.80
24.70
22.47
21.23
20.68
20.17
19.00
16.78
13.53
9.63
5.51
1.46
-2.45
-6.25
-9.95
-13.35
-16.19
-18.22
-19.48
-20.27
-21.08
-22.45
-24.69
-27.96
-32.19
-37.20
-42.68
-48.17
-52.92
-56.02
-56.63
-54.27
-49.20
-42.29
-34.89
-28.30
-23.50
-20.94
-20.60
-22.13
-25.07
-28.83
-32.76
-36.13
-38.21
-38.40
-36.35
-31.96
-25.43
-17.06
-7.27
3.48
14.67
25.83
36.55
46.56
55.76
64.18
71.91
78.94
85.21
90.49
94.49
96.95
97.68
96.61
93.81
89.51
83.92
77.35
69.98
61.94
53.31
44.24
34.93
25.64
16.68
8.30
0.65
-6.24
-12.44
-18.06
-23.27
-28.15
-32.71
-36.84
-40.32
-42.89
-44.42
-44.99
-44.88
-44.59
-44.69
-45.67
-47.75
-50.85
-54.43
-57.60
-59.22
-58.25
-54.06
-46.69
-36.85
-25.73
-14.68
-4.78
3.36
9.50
13.79
16.43
17.61
17.48
16.19
14.02
11.39
8.86
7.09
6.57
7.54
9.85
13.09
16.66
20.02
22.88
25.08
26.61
27.43
27.47
26.64
24.95
22.48
19.49
16.23
12.93
9.70
6.59
3.59
0.74
-1.89
-4.23
-6.27
-8.06
-9.67
-11.18
-12.63
-14.01
-15.25
-16.38
-17.47
-18.61
-19.84
-21.14
-22.36
-23.40
-24.22
-24.97
-25.86
-27.22
-29.32
-32.32
-36.18
-40.63
-45.05
-48.57
-50.25
-49.31
-45.43
-38.89
-30.43
-21.06
-11.69
-2.96
4.76
11.35
16.73
20.86
23.68
25.22
25.58
24.98
23.68
21.90
19.89
17.80
15.80
14.04
12.64
11.70
11.22
11.11
11.17
11.09
10.56
9.38
7.47
5.00
2.23
-0.42
-2.65
-4.25
-5.19
-5.60
-5.67
-5.63
-5.60
-5.64
-5.73
-5.85
-6.04
-6.38
-7.04
-8.11
-9.58
-11.35
-13.20
-14.93
-16.43
-17.74
-19.01
-20.53
-22.57
-25.35
-28.89
-32.92
-36.84
-39.76
-40.73
-38.98
-34.30
-27.02
-18.03
-8.45
0.67
8.61
15.05
19.97
23.48
25.78
27.03
27.39
27.05
26.28
25.30
24.30
23.37
22.53
21.76
21.06
20.41
19.84
19.42
19.21
19.23
19.45
19.71
19.79
19.44
18.55
17.10
15.23
13.12
10.88
8.57
6.12
3.44
0.53
-2.48
-5.36
-7.85
-9.82
-11.25
-12.35
-13.40
-14.64
-16.24
-18.15
-20.22
-22.24
-24.07
-25.64
-27.02
-28.39
-30.03
-32.24
-35.21
-38.83
-42.53
-45.33
-46.15
-44.07
-38.74
-30.50
-20.26
-9.19
1.57
11.13
19.01
25.05
29.32
32.07
33.50
33.87
33.32
32.01
30.17
28.00
25.81
23.83
22.22
20.97
19.97
19.07
18.22
17.42
16.73
16.22
15.88
15.59
15.17
14.49
13.47
12.10
10.46
8.61
6.68
4.77
3.07
1.69
0.76
0.27
0.09
0.00
-0.29
-1.04
-2.41
-4.44
-7.04
-10.08
-13.41
-16.94
-20.67
-24.68
-29.09
-33.95
-39.10
-44.02
-47.91
-49.83
-48.96
-44.88
-37.81
-28.53
-18.18
-7.95
1.20
8.67
14.29
18.14
20.42
21.40
21.31
20.40
18.94
17.24
15.61
14.35
13.66
13.63
14.21
15.24
16.53
17.91
19.26
20.45
21.37
21.88
21.77
20.87
19.13
16.66
13.72
10.64
7.75
5.24
3.12
1.24
-0.58
-2.55
-4.71
-7.09
-9.60
-12.11
-14.45
-16.55
-18.44
-20.32
-22.46
-25.09
-28.14
-31.25
-33.91
-35.75
-36.73
-37.18
-37.45
-37.68
-37.68
-37.04
-35.65
-33.82
-32.36
-32.15
-33.71
-37.00
-41.48
-46.48
-51.44
-55.79
-58.63
-58.60
-54.04
-43.81
-28.05
-8.57
11.63
29.34
42.40
50.28
53.97
55.14
55.22
54.88
54.04
52.41
49.95
47.06
44.36
42.28
40.76
39.30
37.23
34.12
30.02
25.45
21.15
17.61
14.81
12.12
8.48
2.78
-5.72
-17.14
-30.97
-46.14
-61.14
-74.24
-83.64
-88.02
-86.85
-80.77
-71.35
-60.51
-49.73
-39.56
-29.59
-19.01
-7.34
5.08
17.21
27.86
36.24
42.32
46.62
49.76
52.00
53.13
52.74
50.51
46.63
41.82
37.15
33.63
31.84
31.76
32.86
34.37
35.60
36.18
36.14
35.66
34.95
34.01
32.67
30.65
27.79
24.14
19.98
15.75
11.86
8.57
5.81
3.29
0.58
-2.67
-6.61
-11.03
-15.53
-19.61
-22.95
-25.55
-27.73
-29.99
-32.91
-37.00
-42.50
-49.29
-56.69
-63.45
-67.94
-68.61
-64.48
-55.52
-42.73
-27.76
-12.48
1.61
13.58
23.08
30.08
34.65
36.92
37.03
35.37
32.54
29.29
26.34
24.20
23.07
22.90
23.45
24.47
25.76
27.23
28.82
30.44
31.88
32.80
32.79
31.51
28.81
24.86
20.16
15.38
11.10
7.61
4.78
2.18
-0.67
-4.06
-7.93
-11.95
-15.70
-18.94
-21.69
-24.32
-27.37
-31.34
-36.57
-43.04
-50.23
-57.10
-62.25
-64.15
-61.58
-54.06
-42.11
-27.14
-11.09
4.13
17.14
27.27
34.40
38.75
40.64
40.30
38.01
34.21
29.56
24.85
20.80
17.94
16.50
16.45
17.62
19.74
22.51
25.51
28.28
30.32
31.17
30.54
28.32
24.66
19.92
14.54
8.99
3.62
-1.43
-6.21
-10.87
-15.51
-20.04
-24.19
-27.65
-30.22
-31.92
-33.03
-34.10
-35.77
-38.60
-42.80
-48.06
-53.38
-57.26
-58.10
-54.72
-46.85
-35.25
-21.50
-7.44
5.39
16.03
24.15
29.81
33.20
34.53
34.00
31.94
28.84
25.33
22.10
19.70
18.42
18.36
19.37
21.19
23.51
26.03
28.43
30.40
31.66
31.94
31.08
29.08
26.10
22.43
18.39
14.17
9.83
5.26
0.30
-5.14
-10.94
-16.88
-22.63
-27.92
-32.68
-37.17
-41.85
-47.31
-53.94
-61.69
-69.75
-76.60
-80.39
-79.39
-72.66
-60.45
-44.14
-25.84
-7.69
8.66
22.27
32.88
40.62
45.67
48.22
48.48
46.77
43.57
39.56
35.44
31.80
29.08
27.47
27.04
27.73
29.39
31.83
34.67
37.44
39.52
40.31
39.38
36.64
32.33
26.99
21.17
15.29
9.46
3.55
-2.68
-9.35
-16.30
-23.15
-29.42
-34.72
-38.91
-42.21
-45.11
-48.31
-52.50
-58.20
-65.46
-73.60
-81.15
-86.10
-86.45
-80.90
-69.33
-53.02
-34.16
-15.17
2.09
16.61
28.23
37.30
44.17
49.03
51.95
53.00
52.49
50.97
49.14
47.58
46.65
46.40
46.63
47.04
47.39
47.61
47.75
47.84
47.78
47.28
45.86
43.10
38.79
33.14
26.68
20.19
14.35
9.57
5.83
2.70
-0.39
-4.00
-8.34
-13.28
-18.38
-23.12
-27.12
-30.34
-33.03
-35.75
-39.17
-43.92
-50.47
-58.87
-68.58
-78.28
-86.05
-89.71
-87.64
-79.19
-65.11
-47.24
-27.90
-9.19
7.48
21.51
32.76
41.31
47.20
50.44
51.28
50.22
48.04
45.58
43.52
42.26
41.94
42.51
43.89
45.94
48.50
51.34
54.11
56.47
58.10
58.80
58.51
57.15
54.72
51.21
46.72
41.49
35.95
30.56
25.69
21.48
17.77
14.28
10.72
6.99
3.29
-0.08
-2.85
-5.01
-6.86
-8.94
-11.86
-16.00
-21.41
-27.76
-34.48
-40.99
-46.88
-52.05
-56.71
-61.29
-66.40
-72.62
-80.31
-89.30
-98.65
-106.63
-111.07
-109.93
-102.05
-87.60
-68.12
-46.14
-24.31
-4.78
11.30
23.74
33.07
40.07
45.39
49.46
52.46
54.53
55.87
56.81
57.70
58.80
60.16
61.60
62.85
63.74
64.26
64.57
64.83
65.13
65.30
65.05
64.07
62.24
59.67
56.71
53.77
51.14
48.91
46.89
44.80
42.40
39.55
36.33
32.85
29.28
25.78
22.44
19.42
16.86
14.85
13.37
12.24
11.18
9.90
8.24
6.23
4.01
1.75
-0.52
-2.91
-5.67
-9.03
-13.10
-17.75
-22.62
-27.27
-31.32
-34.61
-37.24
-39.57
-42.07
-45.13
-48.94
-53.44
-58.34
-63.28
-67.98
-72.41
-76.77
-81.52
-87.21
-94.40
-103.35
-113.72
-124.34
-133.20
-137.93
-136.36
-127.34
-111.19
-89.63
-65.26
-40.78
-18.32
0.90
16.54
28.85
38.36
45.63
51.17
55.43
58.77
61.43
63.48
64.91
65.71
65.95
65.82
65.63
65.69
66.26
67.40
68.98
70.72
72.23
73.13
73.08
71.90
69.57
66.25
62.23
57.89
53.59
49.62
46.10
43.02
40.26
37.74
35.38
33.16
31.10
29.13
27.13
24.94
22.40
19.42
16.04
12.39
8.69
5.16
2.01
-0.64
-2.83
-4.73
-6.61
-8.79
-11.49
-14.76
-18.44
-22.26
-25.94
-29.34
-32.59
-35.91
-39.62
-43.83
-48.51
-53.42
-58.27
-62.81
-66.93
-70.67
-74.30
-78.32
-83.34
-89.93
-98.24
-107.69
-116.78
-123.38
-125.13
-120.34
-108.49
-90.47
-68.37
-44.77
-22.14
-2.25
13.99
26.51
35.76
42.45
47.36
51.10
54.13
56.66
58.79
60.54
61.90
62.92
63.62
64.09
64.41
64.71
65.13
65.76
66.57
67.35
67.80
67.58
66.42
64.17
60.90
56.82
52.24
47.50
42.87
38.53
34.52
30.82
27.42
24.34
21.67
19.50
17.89
16.76
15.97
15.24
14.33
13.05
11.37
9.38
7.24
5.14
3.12
1.08
-1.25
-4.15
-7.81
-12.17
-16.98
-21.84
-26.48
-30.81
-34.99
-39.25
-43.76
-48.52
-53.35
-57.95
-62.12
-65.75
-68.90
-71.82
-74.90
-78.71
-83.75
-90.28
-97.91
-105.49
-111.17
-112.91
-109.09
-99.11
-83.64
-64.40
-43.66
-23.58
-5.80
8.88
20.25
28.60
34.41
38.23
40.52
41.72
42.18
42.26
42.21
42.28
42.61
43.26
44.27
45.67
47.53
49.93
52.81
55.93
58.80
60.80
61.42
60.44
58.01
54.55
50.58
46.45
42.36
38.26
34.11
29.88
25.70
21.74
18.18
15.07
12.35
9.83
7.32
4.67
1.90
-0.88
-3.44
-5.65
-7.45
-9.01
-10.58
-12.48
-14.90
-17.89
-21.33
-25.07
-28.96
-32.94
-37.12
-41.65
-46.80
-52.79
-59.72
-67.44
-75.29
-82.11
-86.33
-86.42
-81.38
-71.08
-56.47
-39.23
-21.38
-4.66
9.75
21.36
30.18
36.46
40.45
42.37
42.46
41.07
38.70
36.00
33.59
31.92
31.17
31.24
31.85
32.70
33.60
34.53
35.51
36.54
37.52
38.15
38.11
37.20
35.37
32.87
30.01
27.13
24.39
21.72
18.93
15.80
12.16
8.05
3.66
-0.71
-4.80
-8.48
-11.83
-15.00
-18.28
-21.82
-25.68
-29.78
-33.89
-37.85
-41.53
-44.96
-48.26
-51.66
-55.43
-59.87
-65.13
-71.21
-77.67
-83.60
-87.63
-88.29
-84.39
-75.45
-62.00
-45.36
-27.38
-9.81
6.01
19.37
30.01
37.94
43.29
46.21
46.93
45.82
43.39
40.25
36.99
34.08
31.85
30.45
29.89
30.08
30.91
32.25
33.92
35.69
37.25
38.25
38.34
37.28
35.10
32.03
28.50
25.02
21.91
19.25
16.87
14.42
11.67
8.53
5.16
1.81
-1.32
-4.16
-6.88
-9.78
-13.12
-17.07
-21.63
-26.61
-31.75
-36.77
-41.47
-45.79
-49.84
-53.92
-58.47
-63.99
-70.76
-78.60
-86.62
-93.28
-96.68
-95.20
-88.04
-75.55
-59.12
-40.67
-22.09
-4.83
10.28
22.82
32.70
39.92
44.58
46.93
47.34
46.29
44.24
41.69
39.13
37.01
35.75
35.61
36.60
38.53
41.01
43.60
45.89
47.60
48.52
48.60
47.83
46.24
43.92
40.98
37.57
33.94
30.38
27.13
24.31
21.87
19.56
17.06
14.19
10.98
7.62
4.40
1.50
-1.12
-3.68
-6.52
-9.88
-13.96
-18.70
-23.97
-29.51
-35.01
-40.17
-44.79
-48.85
-52.60
-56.52
-61.20
-67.19
-74.67
-83.26
-91.84
-98.71
-101.98
-100.11
-92.41
-79.35
-62.35
-43.36
-24.32
-6.72
8.60
21.33
31.54
39.42
45.20
49.11
51.38
52.30
52.18
51.40
50.30
49.26
48.54
48.34
48.79
49.91
51.68
54.02
56.77
59.62
62.16
63.97
64.68
64.16
62.53
60.07
57.18
54.19
51.28
48.48
45.75
43.08
40.48
38.03
35.85
33.90
32.10
30.25
28.11
25.51
22.41
18.96
15.32
11.70
8.21
4.81
1.37
-2.26
-6.16
-10.28
-14.41
-18.29
-21.70
-24.61
-27.20
-29.83
-32.89
-36.62
-41.05
-46.00
-51.15
-56.18
-60.93
-65.40
-69.84
-74.65
-80.30
-87.26
-95.77
-105.50
-115.39
-123.66
-128.12
-126.79
-118.58
-103.74
-83.76
-60.98
-37.86
-16.41
2.24
17.69
30.14
39.98
47.65
53.49
57.80
60.84
62.82
63.91
64.28
64.05
63.41
62.56
61.79
61.35
61.45
62.16
63.36
64.77
65.99
66.56
66.12
64.44
61.56
57.74
53.43
49.14
45.29
42.07
39.44
37.20
35.11
32.98
30.77
28.52
26.32
24.24
22.34
20.59
18.98
17.43
15.84
14.08
12.07
9.76
7.22
4.63
2.16
-0.02
-1.88
-3.54
-5.21
-7.14
-9.51
-12.33
-15.50
-18.81
-22.05
-25.10
-28.02
-31.01
-34.38
-38.36
-42.98
-48.06
-53.30
-58.40
-63.21
-67.84
-72.49
-77.59
-83.55
-90.77
-99.34
-108.91
-118.36
-125.80
-129.03
-126.11
-116.11
-99.47
-77.95
-54.06
-30.26
-8.50
10.19
25.42
37.34
46.28
52.65
56.94
59.64
61.23
62.16
62.65
62.85
62.75
62.37
61.76
61.09
60.58
60.44
60.80
61.57
62.55
63.32
63.52
62.86
61.24
58.77
55.70
52.28
48.70
45.06
41.39
37.71
34.08
30.65
27.61
25.10
23.13
21.60
20.31
19.04
17.58
15.88
13.95
11.83
9.58
7.17
4.52
1.46
-2.09
-6.20
-10.75
-15.54
-20.26
-24.61
-28.41
-31.66
-34.57
-37.42
-40.56
-44.11
-48.01
-52.07
-56.02
-59.71
-63.19
-66.72
-70.69
-75.52
-81.62
-89.13
-97.75
-106.57
-114.01
-118.09
-116.90
-109.29
-95.27
-76.09
-53.91
-31.15
-9.91
8.38
23.07
34.06
41.67
46.39
48.85
49.74
49.68
49.18
48.60
48.15
47.93
47.98
48.34
49.05
50.11
51.51
53.20
55.04
56.84
58.37
59.38
59.68
59.11
57.61
55.18
51.90
47.93
43.54
39.00
34.59
30.53
26.95
23.90
21.35
19.19
17.13
14.80
11.81
7.97
3.27
-1.98
-7.41
-12.73
-17.97
-23.34
-29.19
-35.73
-42.87
-50.11
-56.67
-61.55
-63.83
-62.96
-59.03
-52.84
-45.77
-39.37
-34.86
-32.84
-33.23
-35.51
-39.22
-44.23
-50.79
-59.25
-69.50
-80.52
-90.34
-96.49
-96.80
-90.24
-77.34
-59.92
-40.40
-20.94
-2.93
13.05
26.86
38.34
47.21
53.22
56.41
57.32
56.85
55.94
55.17
54.75
54.52
54.27
53.86
53.38
53.06
53.15
53.77
54.88
56.29
57.72
58.73
58.90
57.77
55.08
50.78
45.22
39.06
33.03
27.77
23.51
20.11
17.28
14.80
12.72
11.38
11.02
11.64
12.77
13.65
13.55
12.11
9.43
5.92
2.03
-2.02
-6.39
-11.42
-17.47
-24.56
-32.35
-40.15
-47.26
-53.22
-58.06
-62.23
-66.46
-71.45
-77.74
-85.59
-95.06
-105.89
-117.39
-128.17
-136.10
-138.68
-133.82
-120.58
-99.75
-73.62
-45.37
-18.06
6.14
26.12
41.69
53.17
60.96
65.54
67.40
67.16
65.49
63.08
60.38
57.72
55.24
53.10
51.42
50.37
50.14
50.79
52.26
54.30
56.50
58.41
59.61
59.91
59.30
57.90
55.86
53.25
50.04
46.19
41.79
37.05
32.35
27.94
23.92
20.11
16.21
12.01
7.43
2.65
-2.08
-6.48
-10.45
-14.01
-17.32
-20.55
-23.85
-27.32
-30.97
-34.77
-38.68
-42.64
-46.61
-50.61
-54.74
-59.25
-64.52
-71.05
-79.16
-88.67
-98.55
-106.93
-111.45
-109.98
-101.41
-86.09
-65.71
-42.83
-20.01
0.77
18.32
32.22
42.45
49.22
52.84
53.69
52.35
49.51
45.95
42.38
39.37
37.31
36.35
36.44
37.42
39.02
41.03
43.24
45.48
47.59
49.34
50.46
50.68
49.89
48.17
45.76
42.99
40.15
37.36
34.56
31.59
28.28
24.47
20.13
15.30
10.10
4.74
-0.53
-5.41
-9.65
-13.19
-16.18
-19.01
-22.17
-26.02
-30.61
-35.71
-40.83
-45.52
-49.55
-53.01
-56.30
-60.01
-64.73
-70.96
-78.84
-87.90
-96.92
-103.96
-106.80
-103.56
-93.44
-77.04
-56.29
-33.80
-12.06
7.12
22.84
34.95
43.66
49.30
52.16
52.62
51.20
48.54
45.35
42.28
39.82
38.25
37.64
37.92
38.90
40.41
42.34
44.58
47.01
49.39
51.27
52.23
51.85
49.97
46.78
42.69
38.26
33.95
30.06
26.63
23.47
20.26
16.70
12.58
7.92
2.95
-1.95
-6.43
-10.26
-13.48
-16.33
-19.21
-22.47
-26.29
-30.65
-35.27
-39.82
-43.98
-47.64
-50.93
-54.20
-57.99
-62.87
-69.26
-77.14
-85.82
-93.83
-99.15
-99.65
-93.85
-81.40
-63.38
-41.94
-19.73
0.93
18.48
32.27
42.37
49.07
52.74
53.63
52.04
48.48
43.71
38.67
34.34
31.33
29.89
29.84
30.73
32.18
33.99
36.14
38.68
41.46
44.09
45.93
46.38
45.07
42.01
37.59
32.39
26.97
21.76
16.90
12.32
7.82
3.13
-1.96
-7.55
-13.58
-19.80
-25.90
-31.54
-36.44
-40.53
-44.00
-47.24
-50.87
-55.54
-61.77
-69.53
-78.14
-86.06
-91.24
-91.71
-86.13
-74.40
-57.71
-38.17
-18.17
0.30
16.02
28.52
37.81
44.08
47.51
48.30
46.79
43.54
39.30
34.84
30.84
27.75
25.79
25.00
25.37
26.84
29.28
32.39
35.70
38.52
40.16
40.08
38.07
34.32
29.37
23.76
18.01
12.31
6.54
0.41
-6.30
-13.65
-21.34
-28.92
-35.84
-41.79
-46.76
-51.08
-55.37
-60.38
-66.75
-74.71
-83.79
-92.66
-99.25
-101.31
-97.15
-86.25
-69.59
-49.30
-27.93
-7.80
9.56
23.51
34.04
41.41
45.93
47.83
47.37
44.92
41.06
36.49
31.97
28.18
25.60
24.42
24.61
26.04
28.44
31.45
34.57
37.15
38.52
38.16
35.93
32.12
27.26
21.89
16.23
10.16
3.44
-4.10
-12.26
-20.55
-28.42
-35.45
-41.67
-47.43
-53.29
-59.90
-67.78
-77.18
-87.82
-98.73
-108.19
-113.94
-113.74
-106.19
-91.26
-70.44
-46.27
-21.65
1.04
20.34
35.74
47.27
55.20
59.76
61.21
59.98
56.75
52.48
48.14
44.55
42.17
41.06
41.05
41.84
43.27
45.16
47.35
49.56
51.27
51.84
50.69
47.54
42.50
36.16
29.35
22.90
17.30
12.49
7.96
2.95
-3.17
-10.54
-18.79
-27.15
-34.88
-41.61
-47.53
-53.30
-59.87
-68.15
-78.73
-91.48
-105.40
-118.51
-128.08
-131.34
-126.31
-112.50
-91.16
-64.92
-36.98
-10.27
13.23
32.63
47.94
59.61
68.16
73.98
77.39
78.72
78.43
77.18
75.65
74.48
74.10
74.70
76.30
78.80
82.04
85.88
90.04
94.09
97.41
99.34
99.33
97.19
93.17
87.85
82.04
76.43
71.49
67.35
63.87
60.77
57.80
54.86
51.97
49.28
46.99
45.16
43.78
42.61
41.34
39.66
37.37
34.48
31.16
27.68
24.31
21.24
18.53
16.15
13.98
11.90
9.82
7.73
5.69
3.78
2.02
0.40
-1.29
-3.28
-5.81
-9.02
-12.92
-17.33
-21.97
-26.54
-30.78
-34.66
-38.31
-42.11
-46.50
-51.80
-58.09
-65.05
-72.19
-78.95
-84.94
-90.17
-95.04
-100.27
-106.84
-115.60
-126.90
-140.08
-153.27
-163.53
-167.55
-162.75
-148.22
-125.05
-96.06
-64.84
-34.69
-7.94
14.30
31.91
45.29
55.10
62.10
66.96
70.34
72.77
74.63
76.16
77.48
78.66
79.79
80.91
82.10
83.47
85.12
87.06
89.18
91.19
92.60
92.90
91.79
89.22
85.51
81.17
76.77
72.70
69.10
65.90
62.87
59.79
56.55
53.20
49.92
46.87
44.20
41.89
39.78
37.64
35.29
32.66
29.81
26.90
24.08
21.44
18.92
16.37
13.63
10.57
7.20
3.67
0.24
-2.86
-5.48
-7.62
-9.50
-11.40
-13.64
-16.41
-19.70
-23.36
-27.15
-30.84
-34.40
-37.99
-41.90
-46.39
-51.62
-57.47
-63.67
-69.83
-75.63
-80.98
-86.01
-91.15
-97.02
-104.24
-113.07
-123.13
-133.02
-140.49
-142.95
-138.21
-125.36
-105.12
-79.79
-52.43
-26.05
-2.83
16.09
30.51
40.88
47.92
52.48
55.50
57.84
60.17
62.82
65.71
68.51
70.78
72.22
72.79
72.68
72.19
71.57
70.96
70.30
69.41
68.08
66.11
63.41
60.02
56.09
51.85
47.58
43.53
39.84
36.61
33.80
31.30
29.02
26.83
24.65
22.43
20.15
17.90
15.80
13.98
12.53
11.42
10.49
9.53
8.36
6.92
5.29
3.59
1.90
0.27
-1.37
-3.09
-4.93
-6.92
-9.06
-11.37
-13.88
-16.61
-19.47
-22.36
-25.10
-27.63
-29.95
-32.26
-34.79
-37.74
-41.18
-45.03
-49.10
-53.14
-57.04
-60.79
-64.61
-68.86
-74.07
-80.69
-88.90
-98.20
-107.33
-114.26
-116.79
-113.17
-102.77
-86.37
-65.87
-43.75
-22.32
-3.23
12.62
25.03
34.21
40.60
44.77
47.44
49.28
50.81
52.34
53.88
55.22
56.16
56.54
56.39
55.83
55.07
54.33
53.72
53.24
52.74
51.99
50.70
48.62
45.67
41.97
37.88
33.77
30.02
26.84
24.22
22.01
20.05
18.19
16.38
14.59
12.84
11.12
9.46
7.90
6.53
5.41
4.54
3.82
3.08
2.20
1.14
-0.08
-1.35
-2.59
-3.79
-5.02
-6.45
-8.27
-10.63
-13.57
-16.97
-20.59
-24.11
-27.27
-30.01
-32.45
-34.89
-37.66
-40.97
-44.79
-48.89
-52.94
-56.60
-59.77
-62.51
-65.14
-68.16
-72.07
-77.19
-83.35
-89.74
-94.88
-96.99
-94.48
-86.53
-73.40
-56.37
-37.35
-18.40
-1.19
13.28
24.55
32.73
38.24
41.62
43.56
44.66
45.37
46.01
46.62
47.14
47.42
47.35
46.93
46.24
45.46
44.78
44.33
44.12
44.00
43.67
42.80
41.07
38.40
34.94
31.07
27.24
23.87
21.19
19.17
17.65
16.35
15.11
13.86
12.69
11.76
11.16
10.87
10.70
10.44
9.90
8.97
7.68
6.10
4.28
2.24
-0.04
-2.58
-5.37
-8.40
-11.62
-14.99
-18.45
-21.85
-25.09
-28.05
-30.69
-33.11
-35.48
-37.97
-40.68
-43.52
-46.36
-48.95
-51.19
-53.10
-54.90
-57.03
-60.04
-64.41
-70.26
-77.05
-83.54
-87.93
-88.38
-83.57
-73.21
-58.13
-40.07
-21.17
-3.38
11.87
23.85
32.39
37.74
40.44
41.18
40.71
39.73
38.71
37.90
37.36
37.00
36.80
36.76
36.98
37.55
38.52
39.80
41.24
42.62
43.76
44.44
44.46
43.65
41.91
39.29
36.00
32.39
28.81
25.54
22.68
20.16
17.83
15.56
13.24
10.86
8.46
6.10
3.80
1.65
-0.27
-1.89
-3.15
-4.05
-4.70
-5.27
-6.05
-7.32
-9.20
-11.65
-14.40
-17.05
-19.28
-21.01
-22.50
-24.21
-26.63
-29.98
-34.22
-38.93
-43.64
-47.93
-51.66
-54.94
-58.07
-61.52
-65.74
-71.01
-77.22
-83.71
-89.17
-91.92
-90.29
-83.20
-70.63
-53.68
-34.27
-14.67
3.14
17.83
28.84
36.28
40.61
42.50
42.62
41.60
40.00
38.28
36.77
35.66
34.96
34.60
34.47
34.51
34.77
35.38
36.46
38.04
39.90
41.68
42.89
43.09
42.04
39.75
36.52
32.79
29.05
25.68
22.81
20.38
18.17
15.93
13.49
10.87
8.27
5.96
4.16
2.91
2.04
1.19
-0.03
-1.91
-4.49
-7.63
-10.97
-14.20
-17.13
-19.75
-22.23
-24.80
-27.64
-30.81
-34.20
-37.62
-40.85
-43.74
-46.30
-48.73
-51.41
-54.81
-59.39
-65.30
-72.12
-78.74
-83.45
-84.42
-80.21
-70.37
-55.65
-37.73
-18.76
-0.73
14.97
27.60
37.07
43.59
47.52
49.22
49.09
47.52
44.98
41.95
38.89
36.19
34.08
32.65
31.90
31.81
32.33
33.41
34.90
36.55
38.02
38.96
39.11
38.33
36.64
34.17
31.11
27.75
24.32
21.08
18.13
15.47
12.93
10.30
7.38
4.14
0.66
-2.79
-5.96
-8.64
-10.72
-12.31
-13.64
-15.04
-16.85
-19.31
-22.52
-26.35
-30.60
-34.94
-39.19
-43.27
-47.37
-51.86
-57.24
-63.95
-72.09
-81.18
-89.97
-96.59
-98.99
-95.59
-85.76
-70.19
-50.66
-29.51
-8.99
9.21
24.09
35.31
42.94
47.30
48.95
48.56
46.90
44.62
42.25
40.11
38.36
37.11
36.54
36.77
37.87
39.75
42.22
44.97
47.66
49.96
51.53
52.02
51.21
49.00
45.55
41.23
36.53
31.92
27.70
23.88
20.34
16.81
13.03
8.83
4.19
-0.80
-5.89
-10.72
-14.94
-18.37
-21.12
-23.55
-26.24
-29.64
-33.85
-38.57
-43.22
-47.22
-50.27
-52.48
-54.36
-56.59
-59.89
-64.82
-71.57
-79.72
-88.04
-94.58
-97.13
-93.84
-83.91
-67.94
-47.80
-25.96
-4.85
13.72
28.75
39.91
47.34
51.41
52.64
51.66
49.14
45.82
42.35
39.24
36.90
35.57
35.36
36.21
38.01
40.59
43.74
47.26
50.84
54.11
56.59
57.84
57.55
55.62
52.21
47.64
42.43
37.05
31.93
27.37
23.53
20.35
17.63
15.07
12.36
9.23
5.57
1.48
-2.81
-7.05
-11.04
-14.79
-18.54
-22.61
-27.25
-32.47
-38.03
-43.48
-48.38
-52.47
-55.78
-58.67
-61.75
-65.78
-71.45
-79.07
-88.29
-97.76
-105.32
-108.43
-104.97
-94.06
-76.38
-54.02
-29.79
-6.40
14.15
30.81
43.26
51.69
56.51
58.34
57.87
55.93
53.29
50.52
48.02
46.00
44.53
43.69
43.50
43.99
45.13
46.78
48.76
50.78
52.48
53.47
53.39
52.09
49.58
46.13
42.11
37.86
33.61
29.48
25.56
21.94
18.74
16.04
13.80
11.77
9.63
7.05
3.85
0.08
-4.02
-8.17
-12.16
-15.98
-19.80
-23.89
-28.45
-33.46
-38.68
-43.74
-48.27
-52.14
-55.54
-58.93
-62.95
-68.25
-75.41
-84.70
-95.78
-107.51
-117.80
-123.99
-123.54
-114.89
-98.07
-74.88
-48.28
-21.55
2.62
22.63
37.88
48.54
55.11
58.25
58.65
57.04
54.23
51.02
48.09
45.99
45.06
45.41
46.99
49.57
52.89
56.63
60.55
64.36
67.76
70.37
71.74
71.55
69.59
65.96
61.04
55.34
49.43
43.73
38.45
33.60
29.03
24.63
20.33
16.13
12.05
8.10
4.18
0.22
-3.76
-7.66
-11.31
-14.57
-17.54
-20.49
-23.85
-28.00
-33.06
-38.86
-44.91
-50.70
-55.84
-60.24
-64.17
-68.17
-72.99
-79.38
-87.82
-98.19
-109.46
-119.58
-125.84
-125.58
-117.13
-100.49
-77.37
-50.71
-23.76
0.82
21.42
37.51
49.25
57.06
61.41
62.76
61.61
58.65
54.69
50.62
47.21
44.97
44.10
44.51
45.99
48.26
51.17
54.58
58.23
61.68
64.30
65.45
64.78
62.30
58.50
54.04
49.51
45.19
41.02
36.75
32.14
27.12
21.86
16.55
11.34
6.18
0.85
-4.93
-11.30
-18.24
-25.51
-32.77
-39.63
-45.85
-51.39
-56.40
-61.30
-66.72
-73.38
-81.77
-91.76
-102.26
-111.15
-115.76
-113.65
-103.57
-85.95
-62.86
-37.33
-12.40
9.73
27.90
41.85
51.77
57.93
60.65
60.39
57.92
54.22
50.38
47.28
45.39
44.78
45.26
46.55
48.39
50.63
53.16
55.81
58.32
60.28
61.21
60.66
58.35
54.32
48.90
42.70
36.42
30.60
25.52
21.10
17.02
12.85
8.29
3.40
-1.47
-5.85
-9.38
-12.06
-14.35
-17.03
-20.79
-25.98
-32.47
-39.69
-46.90
-53.54
-59.42
-64.74
-70.06
-76.15
-83.80
-93.50
-105.09
-117.32
-127.86
-133.62
-131.77
-120.71
-100.83
-74.44
-45.10
-16.44
8.77
29.09
44.24
54.64
60.97
63.91
64.18
62.56
59.90
57.00
54.52
52.86
52.17
52.41
53.43
55.11
57.31
59.95
62.90
65.97
68.76
70.77
71.40
70.25
67.22
62.62
57.09
51.39
46.12
41.58
37.69
34.14
30.61
26.94
23.23
19.77
16.85
14.58
12.80
11.12
9.01
6.08
2.20
-2.43
-7.33
-11.99
-16.05
-19.50
-22.72
-26.30
-30.77
-36.43
-43.16
-50.56
-58.09
-65.32
-72.07
-78.43
-84.86
-92.04
-100.82
-111.78
-124.78
-138.43
-150.09
-156.34
-154.05
-141.58
-119.47
-90.36
-58.14
-26.69
1.13
23.85
41.21
53.70
61.99
66.77
68.74
68.66
67.31
65.53
64.01
63.24
63.48
64.70
66.68
69.12
71.73
74.32
76.83
79.22
81.35
82.92
83.47
82.56
79.98
75.82
70.51
64.66
58.85
53.50
48.79
44.70
41.05
37.67
34.41
31.23
28.17
25.26
22.49
19.82
17.17
14.45
11.64
8.72
5.60
2.15
-1.82
-6.37
-11.42
-16.66
-21.64
-26.04
-29.76
-33.05
-36.39
-40.28
-45.03
-50.58
-56.52
-62.34
-67.59
-72.09
-76.09
-80.15
-85.08
-91.74
-100.69
-111.86
-124.20
-135.52
-142.89
-143.32
-134.83
-117.14
-91.94
-62.33
-31.93
-3.90
19.69
37.97
50.99
59.29
63.65
64.87
63.86
61.53
58.76
56.32
54.74
54.29
54.99
56.67
59.05
61.86
64.89
67.93
70.80
73.20
74.75
75.07
73.83
70.94
66.59
61.19
55.27
49.31
43.63
38.40
33.64
29.33
25.42
21.87
18.57
15.40
12.21
8.86
5.34
1.74
-1.72
-4.89
-7.71
-10.32
-13.02
-16.22
-20.25
-25.22
-30.93
-36.99
-42.93
-48.48
-53.58
-58.53
-63.81
-70.06
-77.86
-87.58
-98.99
-110.95
-121.32
-127.30
-126.17
-116.36
-98.05
-73.34
-45.52
-18.07
6.35
26.38
41.81
53.09
60.79
65.38
67.25
66.87
64.92
62.26
59.66
57.76
56.85
56.93
57.84
59.29
61.04
62.89
64.66
66.14
67.03
66.98
65.68
62.94
58.85
53.74
48.12
42.46
37.08
32.09
27.46
23.10
19.00
15.21
11.74
8.54
5.40
2.04
-1.72
-5.90
-10.30
-14.61
-18.64
-22.40
-26.22
-30.53
-35.73
-41.94
-48.92
-56.19
-63.18
-69.45
-74.88
-79.72
-84.56
-90.25
-97.67
-107.41
-119.31
-132.09
-143.31
-149.78
-148.44
-137.49
-117.10
-89.48
-58.23
-27.23
0.45
23.05
40.17
52.26
60.15
64.72
66.72
66.88
65.93
64.58
63.45
62.96
63.26
64.30
65.87
67.69
69.60
71.53
73.52
75.52
77.34
78.51
78.53
77.00
73.85
69.42
64.28
59.04
54.02
49.22
44.42
39.38
33.97
28.31
22.71
17.49
12.81
8.67
4.90
1.28
-2.37
-6.09
-9.72
-13.04
-15.85
-18.15
-20.18
-22.47
-25.62
-30.10
-36.00
-43.03
-50.59
-58.03
-64.92
-71.17
-77.12
-83.40
-90.80
-100.00
-111.19
-123.66
-135.60
-144.27
-146.58
-140.18
-124.30
-100.18
-70.72
-39.67
-10.50
14.38
33.81
47.69
56.53
61.11
62.27
60.89
57.91
54.24
50.66
47.72
45.71
44.67
44.52
45.22
46.72
48.97
51.91
55.28
58.66
61.42
62.92
62.67
60.50
56.64
51.61
46.09
40.65
35.59
30.91
26.39
21.74
16.82
11.72
6.67
1.95
-2.29
-6.11
-9.79
-13.68
-17.97
-22.67
-27.51
-32.06
-35.98
-39.17
-41.86
-44.60
-48.21
-53.56
-61.32
-71.60
-83.63
-95.54
-104.66
-108.19
-104.07
-91.74
-72.45
-48.81
-24.03
-0.90
18.75
34.20
45.53
53.17
57.56
59.04
57.97
54.89
50.62
46.19
42.58
40.52
40.17
41.25
43.17
45.38
47.54
49.57
51.50
53.15
54.10
53.76
51.57
47.32
41.25
34.00
26.36
19.03
12.47
6.71
1.36
-4.18
-10.50
-17.92
-26.28
-34.98
-43.17
-50.18
-55.70
-60.00
-63.82
-68.18
-74.06
-82.10
-92.26
-103.50
-113.75
-120.23
-120.20
-111.83
-94.98
-71.32
-43.93
-16.28
8.68
29.22
44.78
55.70
62.62
66.16
66.81
65.06
61.57
57.23
53.06
49.96
48.50
48.74
50.28
52.47
54.71
56.60
58.07
59.15
59.83
59.88
58.94
56.57
52.49
46.72
39.58
31.65
23.62
16.13
9.57
4.02
-0.85
-5.67
-11.12
-17.69
-25.47
-34.05
-42.77
-50.89
-58.01
-64.15
-69.84
-75.94
-83.45
-93.26
-105.76
-120.48
-135.79
-148.90
-156.41
-155.22
-143.61
-121.98
-92.87
-60.22
-28.13
0.21
23.06
40.13
52.02
59.70
64.13
66.16
66.54
66.00
65.23
64.78
64.99
65.91
67.37
69.07
70.67
71.99
72.97
73.71
74.29
74.67
74.57
73.48
70.79
66.09
59.32
50.93
41.78
32.81
24.74
17.69
11.21
4.50
-3.18
-12.09
-21.91
-31.89
-41.17
-49.14
-55.73
-61.35
-66.83
-73.21
-81.47
-92.33
-105.80
-120.87
-135.24
-145.70
-148.85
-142.29
-125.50
-100.19
-69.77
-38.32
-9.34
15.03
34.14
48.44
58.85
66.24
71.24
74.35
76.01
76.75
77.10
77.48
78.03
78.61
78.96
78.83
78.21
77.34
76.54
75.93
75.26
73.86
70.90
65.78
58.43
49.41
39.76
30.58
22.66
16.14
10.54
5.01
-1.23
-8.54
-16.71
-25.08
-32.82
-39.42
-44.90
-49.92
-55.57
-63.02
-73.21
-86.31
-101.50
-116.76
-129.16
-135.43
-132.89
-120.44
-99.02
-71.41
-41.45
-12.84
11.78
31.27
45.84
56.39
63.94
69.18
72.50
74.09
74.24
73.40
72.17
71.12
70.60
70.69
71.25
72.04
72.90
73.80
74.74
75.68
76.30
76.11
74.61
71.52
66.93
61.23
54.88
48.31
41.63
34.84
27.89
20.85
13.92
7.36
1.30
-4.39
-10.00
-15.91
-22.33
-29.17
-36.14
-42.80
-48.80
-54.06
-58.79
-63.57
-69.20
-76.62
-86.59
-99.26
-113.77
-127.99
-138.84
-142.96
-137.85
-122.77
-99.09
-69.96
-39.31
-10.65
13.70
32.90
47.17
57.31
64.06
67.96
69.39
68.84
67.07
64.96
63.34
62.71
63.11
64.20
65.52
66.75
67.83
68.85
69.89
70.77
71.04
70.09
67.50
63.25
57.76
51.76
45.97
40.79
36.21
31.85
27.26
22.16
16.62
11.03
5.91
1.62
-1.85
-4.89
-8.12
-12.16
-17.35
-23.60
-30.46
-37.34
-43.77
-49.64
-55.28
-61.33
-68.61
-77.83
-89.20
-102.08
-114.77
-124.62
-128.64
-124.40
-110.91
-89.13
-61.76
-32.43
-4.63
19.19
37.89
51.44
60.49
65.77
67.96
67.63
65.40
62.04
58.47
55.58
54.04
54.10
55.59
57.99
60.65
63.03
64.82
65.95
66.42
66.15
64.92
62.45
58.59
53.49
47.63
41.64
36.11
31.34
27.31
23.77
20.42
17.14
14.01
11.17
8.73
6.51
4.21
1.41
-2.07
-6.20
-10.63
-14.93
-18.79
-22.19
-25.38
-28.78
-32.80
-37.63
-43.19
-49.17
-55.18
-60.89
-66.16
-71.15
-76.37
-82.63
-90.82
-101.45
-114.21
-127.53
-138.68
-144.36
-141.77
-129.55
-108.37
-80.79
-50.47
-21.12
4.44
24.68
39.35
49.12
55.07
58.37
60.05
60.87
61.35
61.78
62.32
63.03
63.90
64.88
65.92
66.93
67.88
68.79
69.64
70.34
70.65
70.22
68.70
65.90
61.87
56.96
51.66
46.51
41.88
37.95
34.68
31.88
29.34
26.88
24.49
22.22
20.14
18.31
16.71
15.29
13.99
12.82
11.78
10.83
9.75
8.27
6.06
2.91
-1.18
-5.96
-11.03
-16.00
-20.66
-25.09
-29.58
-34.51
-40.10
-46.30
-52.71
-58.75
-63.91
-67.97
-71.12
-73.95
-77.32
-82.21
-89.34
-98.84
-109.96
-120.88
-128.93
-131.24
-125.67
-111.55
-90.08
-63.95
-36.59
-11.15
10.21
26.58
38.07
45.37
49.32
50.76
50.42
49.03
47.25
45.67
44.68
44.50
45.07
46.15
47.48
48.85
50.18
51.57
53.12
54.84
56.46
57.57
57.67
56.38
53.65
49.72
45.11
40.37
35.93
31.99
28.49
25.25
22.04
18.74
15.39
12.17
9.30
6.91
4.93
3.18
1.30
-0.96
-3.70
-6.77
-9.86
-12.67
-15.10
-17.29
-19.65
-22.60
-26.36
-30.80
-35.46
-39.77
-43.28
-45.89
-47.92
-49.98
-52.84
-57.21
-63.52
-71.64
-80.75
-89.22
-94.91
-95.71
-90.20
-78.21
-60.91
-40.53
-19.68
-0.62
15.19
27.17
35.41
40.39
42.71
42.95
41.68
39.43
36.76
34.23
32.35
31.42
31.62
32.78
34.63
36.83
39.11
41.30
43.24
44.72
45.42
44.97
43.12
39.87
35.49
30.40
25.03
19.64
14.25
8.82
3.28
-2.32
-7.76
-12.79
-17.19
-20.90
-24.05
-26.92
-29.79
-32.87
-36.17
-39.59
-42.87
-45.87
-48.60
-51.37
-54.68
-59.15
-65.31
-73.35
-82.89
-92.70
-100.82
-104.90
-102.85
-93.58
-77.47
-56.30
-32.82
-9.86
10.35
26.57
38.52
46.54
51.24
53.26
53.26
51.84
49.59
47.03
44.58
42.58
41.23
40.67
40.89
41.79
43.14
44.68
46.19
47.47
48.34
48.57
47.84
45.85
42.43
37.67
32.03
26.24
20.98
16.68
13.30
10.48
7.62
4.35
0.58
-3.40
-7.18
-10.49
-13.33
-16.05
-19.14
-23.00
-27.77
-33.21
-38.90
-44.30
-49.05
-53.08
-56.63
-60.25
-64.71
-70.77
-78.84
-88.55
-98.61
-106.74
-110.29
-107.05
-96.06
-78.03
-55.21
-30.62
-7.17
13.08
29.17
41.04
49.21
54.36
57.11
58.03
57.61
56.28
54.43
52.40
50.41
48.69
47.36
46.49
46.03
45.89
45.91
45.98
45.96
45.73
45.07
43.76
41.59
38.45
34.43
29.82
25.09
20.65
16.79
13.59
10.88
8.40
5.88
3.18
0.27
-2.75
-5.67
-8.33
-10.60
-12.50
-14.18
-15.94
-18.18
-21.26
-25.36
-30.44
-36.16
-42.01
-47.45
-52.13
-56.00
-59.40
-62.99
-67.56
-73.80
-81.91
-91.23
-100.13
-106.23
-107.08
-100.95
-87.55
-68.20
-45.42
-22.22
-1.13
16.27
29.43
38.54
44.17
46.92
47.39
46.19
43.97
41.41
39.17
37.74
37.37
38.06
39.61
41.75
44.21
46.83
49.56
52.36
55.08
57.39
58.82
58.88
57.23
53.87
49.16
43.66
38.04
32.80
28.10
23.78
19.46
14.71
9.37
3.61
-2.08
-7.15
-11.24
-14.34
-16.79
-19.15
-21.90
-25.28
-29.19
-33.33
-37.39
-41.14
-44.56
-47.84
-51.28
-55.31
-60.41
-66.91
-74.75
-83.14
-90.49
-94.63
-93.37
-85.32
-70.41
-50.04
-26.72
-3.31
17.73
34.87
47.54
55.93
60.59
62.12
61.02
57.81
53.07
47.59
42.25
37.90
35.05
33.86
34.06
35.19
36.73
38.32
39.71
40.72
41.21
40.93
39.71
37.43
34.13
29.95
25.13
19.90
14.44
8.92
3.53
-1.54
-6.05
-9.94
-13.25
-16.24
-19.25
-22.59
-26.45
-30.71
-35.05
-39.09
-42.58
-45.51
-48.24
-51.49
-56.08
-62.73
-71.72
-82.48
-93.54
-102.60
-107.08
-104.84
-94.92
-77.88
-55.74
-31.34
-7.63
13.12
29.64
41.64
49.50
53.91
55.62
55.30
53.59
51.08
48.36
45.94
44.19
43.26
43.13
43.72
44.91
46.58
48.62
50.78
52.68
53.85
53.83
52.33
49.37
45.21
40.30
35.13
30.01
25.09
20.32
15.59
10.75
5.76
0.74
-4.07
-8.43
-12.22
-15.57
-18.87
-22.59
-27.07
-32.38
-38.16
-43.90
-49.10
-53.54
-57.40
-61.26
-65.87
-72.01
-80.14
-90.05
-100.65
-109.83
-114.95
-113.49
-103.94
-86.45
-62.91
-36.42
-10.39
12.39
30.29
42.93
50.77
54.75
55.82
54.86
52.63
49.81
47.07
45.00
44.11
44.62
46.45
49.25
52.52
55.75
58.54
60.78
62.45
63.56
64.05
63.69
62.15
59.18
54.77
49.21
43.06
36.99
31.57
27.07
23.45
20.36
17.30
13.83
9.70
5.00
0.01
-4.86
-9.22
-12.93
-16.09
-19.05
-22.20
-25.83
-30.02
-34.58
-39.16
-43.41
-47.14
-50.44
-53.70
-57.55
-62.77
-70.06
-79.76
-91.50
-103.91
-114.68
-120.95
-120.17
-110.94
-93.62
-70.21
-43.83
-17.71
5.62
24.66
38.98
48.86
54.84
57.61
57.78
56.08
53.21
49.96
47.05
45.04
44.26
44.77
46.32
48.58
51.15
53.74
56.17
58.29
59.92
60.69
60.16
57.95
53.92
48.34
41.83
35.27
29.41
24.67
21.02
18.01
15.03
11.62
7.63
3.23
-1.14
-5.03
-8.17
-10.62
-12.69
-14.90
-17.72
-21.38
-25.76
-30.48
-35.06
-39.19
-42.87
-46.44
-50.45
-55.53
-62.23
-70.75
-80.72
-90.98
-99.58
-104.11
-102.32
-92.91
-76.07
-53.58
-28.29
-3.29
18.84
36.57
49.38
57.50
61.51
62.08
59.89
55.64
50.12
44.18
38.75
34.54
32.03
31.36
32.29
34.42
37.23
40.26
43.10
45.45
47.03
47.61
46.99
45.09
41.98
37.81
32.82
27.23
21.17
14.79
8.27
1.81
-4.27
-9.75
-14.45
-18.43
-21.92
-25.29
-28.82
-32.62
-36.58
-40.44
-43.92
-46.98
-49.80
-52.85
-56.80
-62.38
-70.10
-79.89
-90.76
-100.82
-107.43
-108.03
-100.93
-85.96
-64.68
-39.88
-14.79
7.86
26.40
40.22
49.57
55.11
57.52
57.44
55.45
52.18
48.37
44.76
41.96
40.33
39.92
40.54
41.92
43.78
45.96
48.38
50.92
53.38
55.41
56.59
56.53
55.00
52.07
48.03
43.33
38.45
33.80
29.49
25.39
21.19
16.58
11.35
5.55
-0.45
-6.16
-11.12
-15.07
-18.15
-20.82
-23.73
-27.39
-32.02
-37.41
-43.02
-48.21
-52.60
-56.19
-59.45
-63.15
-68.20
-75.29
-84.62
-95.59
-106.64
-115.35
-119.00
-115.33
-103.35
-83.79
-59.02
-32.36
-7.12
14.20
30.40
41.42
47.99
51.14
51.87
51.02
49.32
47.38
45.81
45.05
45.42
47.00
49.66
53.12
56.97
60.85
64.45
67.50
69.80
71.14
71.31
70.14
67.52
63.52
58.43
52.66
46.69
40.92
35.65
30.96
26.85
23.25
20.05
17.13
14.26
11.28
8.03
4.47
0.72
-3.06
-6.69
-10.14
-13.57
-17.21
-21.40
-26.32
-32.00
-38.27
-44.76
-51.03
-56.71
-61.67
-66.06
-70.34
-75.15
-81.24
-89.08
-98.57
-108.73
-117.59
-122.55
-121.09
-111.65
-94.30
-70.82
-44.21
-17.77
5.81
25.03
39.49
49.53
55.79
58.86
59.27
57.58
54.54
51.02
47.89
45.80
45.00
45.39
46.61
48.33
50.36
52.66
55.21
57.83
60.08
61.36
61.15
59.18
55.59
50.85
45.61
40.45
35.78
31.67
27.97
24.32
20.35
15.85
10.90
5.86
1.15
-2.86
-6.08
-8.79
-11.50
-14.72
-18.75
-23.53
-28.67
-33.70
-38.20
-42.09
-45.66
-49.53
-54.47
-61.20
-70.00
-80.37
-90.85
-99.16
-102.76
-99.57
-88.78
-71.17
-48.91
-24.93
-2.01
17.78
33.40
44.69
51.97
55.78
56.65
55.11
51.77
47.40
42.84
38.96
36.38
35.41
35.92
37.52
39.71
42.10
44.49
46.76
48.80
50.34
50.99
50.37
48.29
44.88
40.53
35.74
30.97
26.42
22.05
17.62
12.92
7.89
2.69
-2.34
-6.83
-10.64
-13.92
-17.11
-20.79
-25.30
-30.67
-36.52
-42.29
-47.45
-51.84
-55.73
-59.77
-64.85
-71.78
-81.02
-92.36
-104.66
-115.79
-123.07
-123.85
-116.46
-100.79
-78.49
-52.50
-26.19
-2.40
17.13
31.90
42.27
48.99
52.86
54.55
54.65
53.73
52.43
51.29
50.76
50.99
51.94
53.39
55.11
56.97
58.93
60.99
63.06
64.93
66.20
66.42
65.27
62.58
58.43
53.14
47.17
41.03
35.19
29.95
25.36
21.28
17.41
13.41
9.07
4.38
-0.48
-5.23
-9.60
-13.44
-16.75
-19.73
-22.70
-26.00
-29.89
-34.44
-39.51
-44.77
-49.82
-54.39
-58.40
-62.11
-66.10
-71.16
-78.05
-87.14
-98.01
-109.23
-118.44
-122.88
-120.15
-109.04
-90.01
-65.16
-37.62
-10.68
12.99
31.80
45.28
53.81
58.29
59.79
59.34
57.81
55.89
54.11
52.78
52.13
52.23
53.00
54.26
55.79
57.38
58.96
60.50
62.01
63.39
64.37
64.60
63.74
61.60
58.25
54.00
49.30
44.62
40.30
36.46
32.97
29.59
26.07
22.28
18.35
14.55
11.29
8.84
7.26
6.40
5.88
5.23
4.01
1.89
-1.19
-5.04
-9.29
-13.50
-17.36
-20.90
-24.41
-28.35
-33.11
-38.77
-45.02
-51.27
-56.97
-61.79
-65.81
-69.58
-73.91
-79.70
-87.58
-97.58
-108.77
-119.18
-126.15
-126.98
-119.82
-104.35
-82.02
-55.61
-28.49
-3.66
16.85
32.21
42.56
48.64
51.45
51.93
50.95
49.21
47.36
45.92
45.30
45.72
47.16
49.39
52.05
54.77
57.32
59.61
61.69
63.55
65.01
65.75
65.37
63.56
60.33
55.96
50.99
45.92
41.11
36.69
32.57
28.57
24.52
20.40
16.28
12.36
8.88
6.08
4.10
2.91
2.26
1.67
0.65
-1.18
-3.86
-7.12
-10.50
-13.61
-16.34
-18.88
-21.64
-25.04
-29.30
-34.33
-39.79
-45.18
-50.10
-54.39
-58.18
-61.93
-66.25
-71.82
-79.12
-88.19
-98.40
-108.24
-115.52
-117.81
-113.20
-100.99
-82.02
-58.54
-33.43
-9.48
11.36
28.11
40.65
49.30
54.47
56.60
56.14
53.66
49.87
45.55
41.50
38.35
36.49
36.00
36.74
38.39
40.63
43.25
46.10
49.05
51.86
54.16
55.46
55.35
53.64
50.49
46.30
41.61
36.95
32.67
28.89
25.56
22.44
19.24
15.66
11.56
7.04
2.39
-1.97
-5.76
-8.88
-11.53
-14.09
-16.96
-20.34
-24.18
-28.23
-32.14
-35.69
-38.82
-41.72
-44.79
-48.54
-53.54
-60.22
-68.58
-77.89
-86.59
-92.52
-93.43
-87.76
-75.20
-56.95
-35.29
-12.98
7.60
24.86
38.11
47.37
53.02
55.52
55.41
53.20
49.49
44.98
40.43
36.49
33.61
31.97
31.54
32.08
33.39
35.28
37.59
40.14
42.65
44.77
46.08
46.20
45.01
42.50
38.86
34.43
29.62
24.76
20.11
15.67
11.29
6.67
1.57
-4.08
-10.06
-16.00
-21.43
-25.99
-29.59
-32.40
-34.84
-37.39
-40.32
-43.68
-47.18
-50.46
-53.14
-55.19
-56.86
-58.69
-61.36
-65.49
-71.58
-79.74
-89.48
-99.54
-107.84
-111.89
-109.49
-99.46
-82.17
-59.45
-34.12
-9.12
13.20
31.45
45.16
54.59
60.28
62.88
63.09
61.60
59.09
56.19
53.46
51.30
49.94
49.48
49.85
50.94
52.57
54.55
56.71
58.83
60.59
61.66
61.73
60.54
58.04
54.34
49.74
44.63
39.33
34.07
28.93
23.93
19.08
14.52
10.43
6.95
4.09
1.67
-0.67
-3.21
-6.08
-9.18
-12.23
-15.04
-17.55
-20.02
-22.88
-26.51
-31.06
-36.44
-42.29
-48.20
-53.83
-59.06
-64.02
-69.10
-74.87
-82.01
-91.05
-101.98
-113.90
-124.91
-132.35
-133.53
-126.62
-111.33
-89.04
-62.50
-34.93
-9.19
12.77
30.09
42.79
51.40
56.68
59.40
60.28
60.00
59.14
58.26
57.79
58.03
59.07
60.77
62.87
65.08
67.17
69.01
70.52
71.57
71.93
71.34
69.60
66.72
62.88
58.42
53.65
48.77
43.86
38.88
33.83
28.78
23.82
19.09
14.70
10.70
7.05
3.62
0.24
-3.30
-7.06
-10.98
-14.83
-18.44
-21.75
-24.95
-28.43
-32.55
-37.48
-43.09
-48.96
-54.60
-59.62
-63.96
-67.85
-71.87
-76.74
-83.14
-91.38
-101.07
-110.86
-118.59
-121.68
-117.99
-106.56
-88.06
-64.58
-39.03
-14.25
7.62
25.41
38.79
47.95
53.35
55.52
55.11
52.84
49.46
45.77
42.46
40.09
38.99
39.17
40.47
42.57
45.17
48.11
51.28
54.61
57.81
60.40
61.78
61.45
59.24
55.41
50.58
45.45
40.66
36.49
32.92
29.65
26.27
22.43
17.99
13.09
8.06
3.30
-0.91
-4.57
-7.97
-11.56
-15.79
-20.81
-26.45
-32.28
-37.74
-42.49
-46.45
-49.90
-53.45
-57.86
-63.82
-71.71
-81.24
-91.25
-99.70
-104.13
-102.33
-93.17
-77.04
-55.84
-32.34
-9.32
11.10
27.80
40.48
49.35
54.76
57.04
56.60
54.02
50.10
45.76
41.85
38.99
37.46
37.23
38.02
39.52
41.44
43.62
45.94
48.25
50.27
51.53
51.54
49.93
46.68
42.13
36.91
31.70
26.98
22.86
19.11
15.24
10.83
5.68
-0.01
-5.80
-11.12
-15.50
-18.79
-21.26
-23.50
-26.22
-29.95
-34.87
-40.71
-46.87
-52.70
-57.73
-61.88
-65.55
-69.55
-74.85
-82.31
-92.15
-103.66
-114.97
-123.38
-126.01
-120.77
-107.02
-85.96
-60.23
-33.08
-7.46
14.58
32.09
45.04
53.92
59.37
62.03
62.51
61.43
59.44
57.18
55.21
53.97
53.67
54.24
55.47
57.03
58.67
60.23
61.69
63.01
64.04
64.47
63.94
62.11
58.86
54.32
48.82
42.83
36.88
31.36
26.53
22.41
18.87
15.62
12.39
8.98
5.36
1.64
-1.99
-5.37
-8.45
-11.40
-14.61
-18.50
-23.38
-29.36
-36.21
-43.44
-50.52
-57.06
-62.99
-68.57
-74.34
-81.03
-89.33
-99.58
-111.49
-123.76
-134.18
-139.97
-138.51
-128.31
-109.49
-83.91
-54.65
-25.07
1.99
24.71
42.36
55.01
63.20
67.65
69.14
68.50
66.57
64.11
61.74
59.95
58.97
58.88
59.53
60.81
62.51
64.53
66.79
69.15
71.35
72.98
73.53
72.63
70.14
66.29
61.58
56.60
51.83
47.47
43.47
39.54
35.43
31.00
26.31
21.56
16.98
12.65
8.52
4.40
0.14
-4.25
-8.62
-12.68
-16.20
-19.10
-21.58
-23.97
-26.71
-30.08
-34.20
-38.94
-43.99
-48.96
-53.60
-57.88
-62.13
-66.95
-73.13
-81.44
-92.23
-105.07
-118.44
-129.82
-136.17
-134.79
-124.27
-105.09
-79.50
-50.93
-22.93
1.79
21.74
36.63
46.98
53.57
57.19
58.49
58.12
56.72
54.95
53.48
52.84
53.36
55.07
57.76
61.04
64.49
67.74
70.48
72.47
73.43
73.16
71.49
68.42
64.18
59.12
53.68
48.28
43.19
38.53
34.30
30.36
26.51
22.59
18.42
13.97
9.25
4.40
-0.46
-5.13
-9.45
-13.28
-16.59
-19.47
-22.16
-25.00
-28.26
-32.07
-36.31
-40.67
-44.82
-48.58
-51.98
-55.25
-58.86
-63.33
-69.18
-76.72
-85.69
-95.01
-102.73
-106.39
-103.76
-93.62
-76.30
-53.67
-28.55
-3.86
18.06
35.87
49.14
58.03
62.95
64.38
62.89
59.12
53.95
48.32
43.22
39.43
37.40
37.18
38.44
40.65
43.32
46.13
48.91
51.59
53.99
55.75
56.37
55.40
52.67
48.41
43.15
37.66
32.54
28.05
24.04
20.06
15.62
10.42
4.57
-1.45
-7.01
-11.69
-15.39
-18.54
-21.80
-25.81
-30.94
-37.04
-43.64
-50.07
-55.81
-60.70
-64.91
-68.96
-73.57
-79.46
-87.28
-97.21
-108.65
-119.95
-128.49
-131.30
-125.99
-111.63
-89.28
-61.69
-32.47
-5.02
18.34
36.58
49.72
58.38
63.32
65.23
64.75
62.55
59.38
56.01
53.15
51.37
50.99
52.05
54.38
57.59
61.26
64.99
68.49
71.50
73.83
75.19
75.23
73.65
70.25
65.12
58.67
51.53
44.40
37.79
31.94
26.76
21.91
17.10
12.11
6.94
1.72
-3.31
-7.94
-12.05
-15.69
-19.04
-22.44
-26.30
-30.97
-36.56
-42.87
-49.49
-55.88
-61.65
-66.71
-71.33
-76.07
-81.69
-88.91
-98.17
-109.24
-120.95
-131.11
-136.90
-135.61
-125.55
-106.84
-81.40
-52.50
-23.71
2.06
23.08
38.91
50.03
57.30
61.64
63.80
64.42
64.07
63.27
62.49
62.09
62.24
62.90
63.89
64.98
66.01
66.99
67.97
68.99
69.95
70.45
69.96
67.99
64.30
59.07
52.85
46.39
40.38
35.13
30.56
26.24
21.61
16.31
10.33
4.02
-2.10
-7.59
-12.29
-16.40
-20.39
-24.74
-29.75
-35.38
-41.26
-46.94
-52.05
-56.54
-60.72
-65.17
-70.64
-77.89
-87.38
-99.00
-111.74
-123.59
-131.88
-133.83
-127.55
-112.71
-90.78
-64.66
-37.70
-12.83
8.09
24.38
36.27
44.36
49.30
51.68
52.09
51.19
49.76
48.51
48.04
48.58
50.06
52.13
54.43
56.66
58.66
60.43
61.91
62.93
63.19
62.32
60.06
56.43
51.71
46.36
40.88
35.62
30.68
25.99
21.36
16.69
12.00
7.42
3.09
-1.00
-5.13
-9.67
-15.07
-21.45
-28.62
-36.07
-43.18
-49.51
-54.95
-59.77
-64.55
-70.07
-77.13
-86.25
-97.26
-109.03
-119.33
-125.30
-124.29
-114.82
-97.22
-73.62
-47.22
-21.28
1.72
20.54
34.88
45.07
51.57
54.80
55.18
53.27
49.80
45.76
42.08
39.59
38.73
39.54
41.63
44.44
47.37
50.03
52.26
54.04
55.34
55.96
55.53
53.61
49.95
44.66
38.19
31.25
24.53
18.49
13.18
8.33
3.54
-1.57
-7.14
-13.04
-18.96
-24.53
-29.49
-33.73
-37.46
-41.14
-45.42
-51.04
-58.57
-68.09
-78.98
-89.69
-97.94
-101.31
-97.87
-86.90
-69.18
-46.82
-22.52
1.00
21.73
38.52
50.97
59.14
63.29
63.82
61.33
56.67
50.94
45.34
40.84
38.01
36.94
37.29
38.55
40.24
42.07
43.86
45.42
46.43
46.47
45.11
42.05
37.37
31.47
25.03
18.76
13.11
8.20
3.73
-0.79
-5.80
-11.48
-17.62
-23.75
-29.36
-34.14
-38.16
-41.93
-46.26
-52.06
-60.05
-70.37
-82.33
-94.25
-103.67
-107.93
-105.02
-94.22
-76.49
-54.10
-30.04
-7.03
13.02
29.25
41.64
50.52
56.23
59.06
59.34
57.60
54.71
51.63
49.28
48.21
48.53
49.91
51.83
53.80
55.53
56.92
57.94
58.49
58.31
56.90
53.85
48.96
42.43
34.88
27.15
20.07
14.08
9.16
4.80
0.34
-4.74
-10.64
-17.09
-23.59
-29.65
-35.02
-39.85
-44.65
-50.16
-57.25
-66.62
-78.43
-91.96
-105.42
-116.14
-121.18
-118.19
-106.29
-86.43
-61.16
-33.84
-7.73
14.87
32.93
46.58
56.63
64.03
69.46
73.31
75.72
76.85
77.06
76.98
77.25
78.40
80.60
83.71
87.36
91.12
94.53
97.06
98.05
96.70
92.35
84.71
74.08
61.34
47.57
33.80
20.60
8.36
-2.57
-11.50
-17.54
-19.93
-18.68
-14.82
-10.23
-6.92
-6.22
-8.25
-12.04
-16.26
-19.97
-23.10
-26.39
-30.78
-36.87
-44.81
-54.52
-66.02
-79.41
-94.41
-109.78
-123.24
-132.16
-134.65
-130.62
-121.71
-110.40
-98.68
-87.19
-75.46
-62.86
-49.63
-36.98
-26.33
-18.24
-11.80
-4.98
4.28
16.72
31.25
45.13
54.93
57.73
52.14
38.74
19.87
-1.18
-21.17
-37.76
-49.80
-56.79
-58.30
-53.40
-40.92
-20.26
7.86
40.96
75.43
107.65
135.01
156.52
172.59
184.39
193.15
199.62
204.10
206.49
206.54
203.96
198.51
190.04
178.54
164.21
147.53
129.22
110.25
91.61
74.28
59.06
46.38
36.38
28.84
23.32
19.25
16.09
13.54
11.62
10.60
10.82
12.27
14.31
15.65
14.80
10.63
2.96
-7.26
-18.38
-28.66
-36.93
-42.94
-47.21
-50.55
-53.66
-56.87
-60.19
-63.52
-66.83
-70.16
-73.57
-77.00
-80.30
-83.30
-85.90
-88.19
-90.36
-92.59
-94.97
-97.35
-99.44
-100.98
-101.90
-102.55
-103.58
-105.79
-109.67
-115.03
-120.79
-125.08
-125.73
-120.90
-109.78
-92.82
-71.75
-48.99
-27.03
-7.79
7.67
19.14
27.11
32.36
35.76
38.06
39.79
41.27
42.65
43.93
45.02
45.86
46.36
46.46
46.20
45.66
45.02
44.45
44.06
43.80
43.43
42.58
40.94
38.33
34.90
31.01
27.12
23.62
20.69
18.33
16.34
14.53
12.75
10.93
9.07
7.18
5.23
3.14
0.79
-1.97
-5.16
-8.69
-12.34
-15.84
-18.92
-21.49
-23.63
-25.65
-27.82
-30.31
-33.07
-35.87
-38.43
-40.54
-42.22
-43.74
-45.51
-47.99
-51.61
-56.58
-62.79
-69.61
-75.86
-79.93
-80.18
-75.47
-65.59
-51.46
-34.81
-17.73
-2.05
11.02
20.90
27.61
31.46
32.91
32.56
30.99
28.83
26.59
24.66
23.26
22.52
22.45
23.07
24.32
26.12
28.32
30.73
33.15
35.25
36.68
37.13
36.37
34.36
31.33
27.63
23.64
19.61
15.64
11.71
7.79
4.00
0.51
-2.52
-5.03
-7.24
-9.47
-12.14
-15.50
-19.56
-24.09
-28.76
-33.26
-37.41
-41.25
-44.96
-48.82
-53.17
-58.35
-64.52
-71.54
-78.66
-84.54
-87.50
-85.95
-79.02
-66.96
-51.08
-33.37
-15.91
-0.30
12.58
22.47
29.59
34.37
37.30
38.90
39.64
39.90
39.99
40.08
40.26
40.58
41.02
41.52
41.96
42.24
42.30
42.21
42.08
41.99
41.84
41.38
40.26
38.19
35.11
31.22
26.94
22.69
18.81
15.40
12.36
9.43
6.35
2.96
-0.72
-4.49
-8.10
-11.32
-14.10
-16.58
-19.04
-21.80
-25.11
-29.02
-33.31
-37.61
-41.54
-44.84
-47.50
-49.81
-52.33
-55.67
-60.39
-66.63
-73.95
-81.18
-86.61
-88.41
-85.16
-76.34
-62.56
-45.42
-27.03
-9.49
5.64
17.51
26.01
31.56
34.89
36.78
37.89
38.68
39.36
40.01
40.62
41.23
41.89
42.64
43.49
44.41
45.35
46.30
47.26
48.18
48.92
49.23
48.77
47.26
44.61
40.93
36.54
31.84
27.14
22.70
18.60
14.88
11.57
8.71
6.25
4.14
2.24
0.34
-1.73
-4.15
-6.97
-10.14
-13.54
-16.99
-20.36
-23.60
-26.79
-30.08
-33.59
-37.37
-41.29
-45.09
-48.45
-51.15
-53.19
-54.78
-56.42
-58.73
-62.25
-67.20
-73.16
-79.01
-83.03
-83.44
-78.91
-69.10
-54.78
-37.61
-19.61
-2.65
11.93
23.44
31.78
37.19
40.19
41.38
41.40
40.84
40.13
39.58
39.34
39.43
39.76
40.17
40.50
40.64
40.63
40.57
40.64
40.85
41.04
40.91
40.14
38.53
36.13
33.20
30.12
27.24
24.80
22.83
21.19
19.66
17.92
15.71
12.87
9.44
5.67
1.90
-1.48
-4.29
-6.63
-8.82
-11.27
-14.26
-17.87
-21.93
-26.17
-30.33
-34.31
-38.19
-42.20
-46.72
-52.15
-58.82
-66.71
-75.29
-83.38
-89.26
-91.08
-87.50
-78.08
-63.56
-45.60
-26.23
-7.38
9.60
23.91
35.27
43.70
49.36
52.41
53.12
51.84
49.02
45.19
40.97
36.92
33.54
31.11
29.73
29.35
29.77
30.80
32.23
33.81
35.19
36.04
36.03
34.98
32.91
30.07
26.81
23.41
19.99
16.51
12.84
8.88
4.66
0.38
-3.77
-7.65
-11.29
-14.81
-18.41
-22.21
-26.19
-30.30
-34.43
-38.52
-42.56
-46.65
-50.98
-55.85
-61.63
-68.58
-76.57
-84.78
-91.70
-95.40
-94.08
-86.72
-73.54
-55.93
-36.09
-16.33
1.48
16.21
27.51
35.56
40.82
43.84
45.21
45.47
45.14
44.62
44.27
44.29
44.71
45.47
46.46
47.53
48.63
49.69
50.71
51.61
52.25
52.39
51.71
49.99
47.08
43.11
38.42
33.41
28.46
23.76
19.24
14.69
9.93
4.94
-0.06
-4.73
-8.77
-12.15
-15.06
-17.91
-21.07
-24.77
-28.99
-33.48
-37.89
-41.93
-45.48
-48.69
-51.91
-55.76
-60.90
-67.77
-76.35
-85.84
-94.64
-100.58
-101.59
-96.25
-84.31
-66.87
-46.00
-24.16
-3.57
14.21
28.40
38.84
45.83
49.83
51.48
51.41
50.22
48.52
46.76
45.32
44.41
44.17
44.59
45.57
46.99
48.70
50.56
52.42
54.09
55.27
55.61
54.79
52.61
49.14
44.66
39.68
34.73
30.26
26.51
23.41
20.70
17.96
14.84
11.16
7.03
2.73
-1.38
-5.08
-8.46
-11.89
-15.83
-20.54
-26.03
-31.94
-37.78
-43.15
-47.92
-52.32
-56.81
-62.00
-68.35
-76.09
-84.94
-93.91
-101.36
-105.19
-103.51
-95.18
-80.39
-60.59
-38.16
-15.66
4.76
21.76
34.86
44.13
50.02
53.09
53.92
53.13
51.33
49.06
46.77
44.75
43.17
42.01
41.31
41.05
41.32
42.18
43.65
45.50
47.33
48.62
48.89
47.83
45.46
42.09
38.17
34.13
30.23
26.52
22.83
18.94
14.65
9.96
5.04
0.20
-4.20
-7.98
-11.18
-13.97
-16.72
-19.66
-22.90
-26.37
-29.89
-33.29
-36.49
-39.55
-42.77
-46.57
-51.52
-58.05
-66.23
-75.44
-84.24
-90.62
-92.54
-88.58
-78.41
-62.97
-44.16
-24.20
-5.16
11.46
24.83
34.70
41.18
44.65
45.64
44.78
42.72
40.09
37.44
35.20
33.66
32.96
33.06
33.78
34.80
35.84
36.65
37.16
37.35
37.28
36.95
36.28
35.06
33.08
30.22
26.55
22.31
17.94
13.89
10.40
7.46
4.73
1.75
-1.91
-6.47
-11.83
-17.68
-23.61
-29.29
-34.61
-39.70
-44.93
-50.84
-57.96
-66.66
-76.80
-87.50
-97.09
-103.36
-104.13
-98.01
-84.89
-66.08
-43.91
-21.00
0.35
18.63
33.18
43.95
51.25
55.58
57.47
57.43
55.99
53.60
50.74
47.82
45.23
43.30
42.23
42.07
42.65
43.74
45.01
46.13
46.78
46.77
45.92
44.17
41.56
38.17
34.17
29.67
24.80
19.67
14.41
9.16
4.09
-0.64
-5.06
-9.29
-13.67
-18.52
-24.08
-30.30
-36.89
-43.36
-49.24
-54.31
-58.65
-62.66
-66.96
-72.25
-79.10
-87.63
-97.23
-106.35
-112.79
-114.12
-108.46
-95.23
-75.31
-50.94
-25.02
-0.37
20.87
37.51
49.31
56.66
60.32
61.15
59.95
57.46
54.31
51.07
48.16
45.95
44.60
44.13
44.45
45.48
47.16
49.44
52.26
55.41
58.51
60.98
62.28
61.99
59.95
56.34
51.56
46.21
40.81
35.72
31.03
26.59
22.09
17.21
11.88
6.28
0.85
-3.92
-7.75
-10.74
-13.36
-16.30
-20.22
-25.40
-31.71
-38.62
-45.49
-51.79
-57.35
-62.44
-67.68
-73.90
-81.77
-91.58
-102.87
-114.21
-123.39
-127.79
-125.19
-114.45
-95.97
-71.69
-44.53
-17.62
6.47
26.15
40.88
50.92
57.00
59.97
60.63
59.66
57.71
55.44
53.43
52.18
51.95
52.70
54.13
55.87
57.59
59.18
60.65
62.06
63.36
64.28
64.43
63.39
60.95
57.18
52.43
47.24
42.14
37.51
33.46
29.80
26.23
22.38
18.09
13.41
8.59
3.96
-0.21
-3.88
-7.31
-10.88
-14.98
-19.91
-25.64
-31.89
-38.19
-44.11
-49.39
-54.03
-58.33
-62.78
-67.99
-74.54
-82.73
-92.32
-102.19
-110.38
-114.43
-112.13
-102.28
-85.22
-62.82
-37.94
-13.53
8.10
25.62
38.68
47.55
52.76
54.86
54.43
52.08
48.53
44.59
41.09
38.70
37.78
38.33
40.04
42.38
44.89
47.27
49.39
51.21
52.66
53.56
53.60
52.45
49.93
46.08
41.14
35.49
29.55
23.71
18.20
13.12
8.45
4.01
-0.49
-5.37
-10.88
-17.06
-23.75
-30.51
-36.88
-42.53
-47.43
-51.88
-56.49
-62.05
-69.32
-78.69
-89.90
-101.77
-112.13
-118.31
-117.84
-109.27
-92.74
-70.03
-44.08
-18.06
5.41
24.73
39.38
49.63
56.11
59.48
60.35
59.30
56.94
54.00
51.22
49.26
48.46
48.85
50.14
51.92
53.83
55.67
57.33
58.77
59.80
60.09
59.28
57.06
53.46
48.81
43.68
38.63
34.03
29.90
25.97
21.85
17.26
12.24
7.07
2.10
-2.45
-6.66
-10.95
-15.78
-21.51
-28.18
-35.52
-43.07
-50.38
-57.15
-63.39
-69.37
-75.66
-82.99
-92.00
-102.91
-115.07
-126.77
-135.31
-137.81
-132.05
-117.41
-95.13
-68.05
-39.68
-13.15
9.43
27.23
40.39
49.52
55.36
58.49
59.45
58.83
57.32
55.64
54.45
54.17
54.95
56.65
58.96
61.58
64.27
66.92
69.48
71.83
73.77
74.99
75.17
74.08
71.66
68.03
63.52
58.56
53.62
49.05
44.98
41.29
37.63
33.53
28.66
22.92
16.59
10.22
4.39
-0.52
-4.60
-8.30
-12.32
-17.28
-23.46
-30.71
-38.57
-46.43
-53.85
-60.64
-66.95
-73.19
-79.96
-87.88
-97.42
-108.52
-120.29
-130.84
-137.62
-138.01
-130.22
-114.05
-91.03
-64.06
-36.50
-11.25
9.85
26.18
37.95
45.80
50.41
52.43
52.49
51.28
49.53
47.95
47.10
47.28
48.55
50.74
53.56
56.69
59.83
62.71
65.03
66.55
66.99
66.14
63.95
60.56
56.26
51.40
46.26
41.02
35.74
30.45
25.18
20.02
15.07
10.37
5.86
1.34
-3.41
-8.56
-14.11
-19.88
-25.55
-30.82
-35.53
-39.81
-44.04
-48.74
-54.50
-61.84
-70.94
-81.41
-92.11
-101.10
-105.99
-104.50
-95.34
-78.70
-56.35
-31.12
-6.13
16.04
33.85
46.82
55.23
59.72
61.00
59.76
56.70
52.61
48.31
44.61
42.14
41.22
41.81
43.57
46.00
48.63
51.17
53.46
55.39
56.76
57.25
56.52
54.37
50.90
46.51
41.78
37.19
32.96
28.95
24.80
20.13
14.83
9.07
3.24
-2.25
-7.20
-11.81
-16.57
-22.07
-28.68
-36.44
-44.94
-53.59
-61.78
-69.23
-76.02
-82.66
-89.98
-98.87
-109.94
-123.10
-137.19
-149.95
-158.40
-159.74
-152.21
-135.86
-112.65
-85.86
-59.10
-35.39
-16.51
-2.97
5.73
10.59
12.67
12.90
11.87
9.96
7.47
4.75
2.33
0.92
1.22
3.64
8.25
14.64
22.21
30.31
38.43
46.19
53.29
59.32
63.81
66.36
66.91
65.75
63.60
61.32
59.70
59.10
59.56
60.76
62.29
63.77
64.87
65.34
64.96
63.56
61.07
57.54
53.24
48.47
43.53
38.61
33.78
28.95
24.09
19.20
14.41
9.90
5.76
1.87
-2.11
-6.63
-12.07
-18.51
-25.65
-32.91
-39.68
-45.63
-50.83
-55.83
-61.42
-68.41
-77.41
-88.56
-101.28
-114.11
-124.65
-130.10
-127.88
-116.64
-96.75
-70.43
-41.04
-12.13
13.57
34.51
50.44
61.81
69.37
73.82
75.79
75.91
74.90
73.58
72.77
72.96
74.28
76.36
78.52
80.09
80.67
80.30
79.31
78.12
76.90
75.47
73.35
70.07
65.42
59.57
53.00
46.33
40.10
34.56
29.70
25.27
20.90
16.24
11.02
5.27
-0.75
-6.55
-11.62
-15.60
-18.46
-20.64
-22.78
-25.63
-29.60
-34.66
-40.36
-45.97
-50.94
-55.03
-58.50
-61.92
-66.10
-71.79
-79.37
-88.65
-98.54
-107.13
-111.97
-110.81
-102.33
-86.71
-65.57
-41.55
-17.48
4.40
22.77
37.22
47.94
55.35
59.89
61.97
61.99
60.41
57.76
54.64
51.64
49.25
47.79
47.34
47.86
49.18
51.14
53.52
56.01
58.19
59.55
59.69
58.47
56.07
52.95
49.67
46.62
43.88
41.25
38.43
35.20
31.60
27.90
24.52
21.71
19.43
17.16
14.02
9.00
1.38
-8.92
-21.27
-34.41
-46.91
-57.57
-65.88
-72.08
-77.08
-82.14
-88.40
-96.43
-105.80
-114.98
-121.65
-123.32
-118.17
-105.80
-87.39
-65.46
-42.92
-22.32
-5.12
8.32
18.48
26.14
31.97
36.38
39.62
41.92
43.63
45.16
46.85
48.81
50.94
52.97
54.67
55.98
57.04
58.15
59.53
61.20
62.97
64.54
65.62
66.06
65.91
65.34
64.55
63.71
62.86
61.89
60.47
58.23
54.81
49.93
43.62
36.16
28.00
19.66
11.58
3.98
-3.13
-9.97
-16.78
-23.81
-31.09
-38.46
-45.56
-51.95
-57.34
-61.73
-65.51
-69.37
-74.22
-80.86
-89.68
-100.31
-111.44
-120.88
-126.03
-124.63
-115.49
-98.94
-76.84
-52.03
-27.47
-5.56
12.38
25.99
35.63
42.05
45.99
48.18
49.22
49.64
49.84
50.09
50.52
51.17
51.96
52.82
53.66
54.45
55.17
55.79
56.27
56.50
56.30
55.50
53.95
51.57
48.44
44.70
40.51
36.00
31.28
26.49
21.74
17.16
12.83
8.72
4.72
0.72
-3.31
-7.21
-10.76
-13.70
-15.96
-17.65
-19.06
-20.56
-22.40
-24.69
-27.34
-30.19
-33.04
-35.77
-38.36
-40.96
-43.85
-47.49
-52.38
-58.96
-67.37
-77.14
-87.10
-95.33
-99.66
-98.22
-90.09
-75.67
-56.56
-35.09
-13.57
6.21
23.25
37.21
48.13
56.17
61.50
64.36
65.15
64.45
62.90
61.16
59.74
58.94
58.84
59.34
60.28
61.36
62.22
62.44
61.64
59.57
56.14
51.48
45.83
39.48
32.68
25.58
18.37
11.27
4.57
-1.44
-6.63
-11.19
-15.54
-20.30
-25.90
-32.46
-39.60
-46.59
-52.69
-57.41
-60.82
-63.43
-66.10
-69.74
-75.04
-82.35
-91.46
-101.52
-111.00
-117.88
-120.07
-116.06
-105.40
-88.95
-68.60
-46.75
-25.55
-6.45
9.91
23.47
34.41
42.90
48.93
52.47
53.65
52.86
50.77
48.20
45.95
44.55
44.24
44.93
46.28
47.88
49.32
50.34
50.73
50.38
49.20
47.17
44.34
40.79
36.64
32.06
27.17
22.08
16.88
11.63
6.31
0.73
-5.36
-12.23
-20.05
-28.65
-37.59
-46.19
-53.79
-59.92
-64.47
-67.70
-70.16
-72.56
-75.71
-80.33
-86.83
-94.89
-103.25
-109.76
-111.89
-107.49
-95.72
-77.34
-54.56
-30.31
-7.39
12.30
27.91
39.47
47.51
52.65
55.43
56.33
55.81
54.36
52.48
50.59
48.95
47.64
46.56
45.57
44.64
43.84
43.37
43.38
43.83
44.45
44.83
44.60
43.55
41.76
39.48
36.96
34.29
31.37
27.94
23.79
18.78
13.06
6.99
1.05
-4.34
-9.01
-13.13
-17.15
-21.56
-26.73
-32.62
-38.90
-44.98
-50.35
-54.77
-58.38
-61.67
-65.37
-70.24
-76.76
-84.76
-93.22
-100.25
-103.46
-100.72
-90.97
-74.69
-53.83
-31.23
-9.72
8.67
22.96
33.11
39.58
43.00
43.90
42.84
40.40
37.29
34.16
31.53
29.71
28.78
28.70
29.38
30.74
32.77
35.45
38.68
42.25
45.73
48.55
50.17
50.24
48.70
45.83
42.10
37.95
33.65
29.22
24.45
19.13
13.20
6.82
0.40
-5.58
-10.67
-14.70
-17.74
-20.12
-22.27
-24.56
-27.21
-30.22
-33.43
-36.70
-39.98
-43.41
-47.35
-52.31
-58.79
-67.03
-76.65
-86.44
-94.38
-98.14
-95.78
-86.51
-70.95
-51.07
-29.41
-8.41
10.23
25.66
37.67
46.35
51.87
54.40
54.27
52.04
48.46
44.37
40.52
37.42
35.30
34.13
33.78
34.11
35.05
36.63
38.88
41.67
44.65
47.27
48.84
48.80
46.85
43.04
37.79
31.69
25.33
19.14
13.31
7.73
2.11
-3.85
-10.25
-16.97
-23.64
-29.81
-35.18
-39.65
-43.48
-47.10
-51.08
-55.99
-62.26
-69.97
-78.63
-86.98
-93.05
-94.66
-90.06
-78.61
-61.16
-39.75
-17.11
4.25
22.55
36.94
47.28
53.85
57.08
57.43
55.44
51.71
46.92
41.73
36.71
32.33
28.88
26.54
25.34
25.22
26.02
27.48
29.31
31.22
32.84
33.82
33.86
32.76
30.45
27.05
22.76
17.91
12.83
7.88
3.33
-0.68
-4.20
-7.44
-10.73
-14.44
-18.79
-23.82
-29.30
-34.88
-40.20
-45.07
-49.55
-53.96
-58.78
-64.58
-71.91
-81.01
-91.55
-102.34
-111.32
-115.94
-113.81
-103.61
-85.59
-61.62
-34.70
-7.99
15.88
35.40
50.10
60.24
66.44
69.42
69.90
68.59
66.18
63.26
60.34
57.70
55.46
53.60
52.06
50.82
49.91
49.36
49.21
49.36
49.60
49.63
49.10
47.75
45.53
42.57
39.15
35.56
31.97
28.40
24.66
20.46
15.54
9.83
3.56
-2.84
-8.85
-14.12
-18.65
-22.77
-26.92
-31.48
-36.44
-41.47
-46.08
-49.86
-52.74
-55.00
-57.23
-60.21
-64.72
-71.31
-80.05
-90.18
-99.91
-106.70
-107.84
-101.41
-86.96
-65.86
-40.83
-15.11
8.51
28.26
43.53
54.55
61.90
66.16
67.85
67.41
65.33
62.21
58.67
55.21
52.22
49.87
48.21
47.24
46.96
47.39
48.45
49.96
51.49
52.57
52.67
51.51
49.03
45.49
41.32
36.94
32.62
28.43
24.22
19.76
14.87
9.58
4.15
-1.02
-5.58
-9.41
-12.70
-15.85
-19.29
-23.25
-27.65
-32.16
-36.33
-39.87
-42.76
-45.27
-48.01
-51.70
-57.06
-64.49
-73.71
-83.56
-92.01
-96.61
-95.22
-86.80
-71.90
-52.41
-31.02
-10.34
7.82
22.59
33.85
41.82
46.82
49.12
49.04
47.10
43.96
40.26
36.58
33.30
30.67
28.93
28.23
28.69
30.25
32.72
35.70
38.71
41.28
43.00
43.63
43.10
41.48
38.98
35.82
32.14
28.02
23.48
18.55
13.37
8.13
2.98
-2.02
-7.05
-12.35
-18.10
-24.23
-30.47
-36.36
-41.55
-45.95
-49.85
-53.76
-58.34
-64.16
-71.61
-80.63
-90.50
-99.71
-106.14
-107.50
-102.08
-89.45
-70.65
-47.94
-24.06
-1.47
18.20
34.22
46.50
55.19
60.51
62.73
62.29
59.91
56.49
52.90
49.79
47.45
45.92
45.05
44.71
44.84
45.42
46.43
47.76
49.19
50.41
51.06
50.79
49.40
46.86
43.33
39.17
34.72
30.20
25.62
20.81
15.58
9.92
4.01
-1.77
-7.10
-11.90
-16.33
-20.80
-25.73
-31.34
-37.55
-43.96
-50.08
-55.48
-59.96
-63.69
-67.18
-71.21
-76.63
-84.05
-93.48
-103.94
-113.45
-119.30
-118.87
-110.45
-93.95
-71.04
-44.61
-17.92
6.28
26.35
41.70
52.51
59.27
62.60
63.11
61.49
58.58
55.26
52.26
50.06
48.87
48.64
49.20
50.37
52.02
54.05
56.36
58.82
61.19
63.20
64.49
64.69
63.52
60.85
56.84
51.85
46.42
41.04
36.03
31.41
27.00
22.52
17.76
12.69
7.45
2.36
-2.29
-6.23
-9.43
-11.94
-14.10
-16.37
-19.30
-23.33
-28.60
-34.94
-41.82
-48.65
-54.93
-60.54
-65.80
-71.41
-78.24
-86.90
-97.32
-108.48
-118.36
-124.35
-123.99
-115.85
-100.03
-78.21
-53.15
-27.83
-4.64
14.98
30.53
42.14
50.18
55.09
57.28
57.26
55.65
53.14
50.38
47.88
45.99
44.87
44.58
45.17
46.66
49.04
52.16
55.71
59.13
61.77
63.06
62.62
60.37
56.54
51.59
46.06
40.41
34.97
29.87
24.98
20.02
14.74
9.05
3.14
-2.57
-7.58
-11.60
-14.76
-17.49
-20.40
-23.93
-28.10
-32.56
-36.75
-40.22
-42.86
-44.94
-47.11
-50.10
-54.59
-60.86
-68.74
-77.29
-84.89
-89.44
-88.94
-82.05
-68.68
-50.10
-28.60
-6.77
13.11
29.59
42.03
50.48
55.29
56.93
55.91
52.82
48.35
43.26
38.28
34.02
30.88
29.05
28.51
29.12
30.62
32.79
35.36
38.01
40.33
41.85
42.13
40.95
38.33
34.62
30.25
25.60
20.81
15.86
10.65
5.17
-0.41
-5.74
-10.48
-14.47
-17.82
-20.90
-24.20
-28.16
-32.92
-38.32
-43.91
-49.11
-53.50
-56.91
-59.67
-62.46
-66.18
-71.70
-79.43
-89.04
-99.16
-107.56
-111.58
-108.94
-98.59
-81.04
-58.30
-33.23
-8.68
13.21
31.31
45.34
55.55
62.36
66.18
67.52
66.92
65.00
62.44
59.75
57.27
55.15
53.43
52.09
51.14
50.66
50.69
51.20
52.05
52.92
53.42
53.20
52.01
49.82
46.80
43.31
39.65
36.09
32.63
29.11
25.23
20.71
15.49
9.70
3.65
-2.25
-7.81
-13.07
-18.23
-23.64
-29.42
-35.53
-41.67
-47.49
-52.70
-57.32
-61.67
-66.32
-71.99
-79.31
-88.52
-99.21
-110.03
-118.73
-122.67
-119.54
-108.31
-89.58
-65.60
-39.46
-14.22
7.94
25.91
39.53
49.14
55.25
58.30
58.83
57.47
55.00
52.23
49.82
48.22
47.57
47.75
48.56
49.76
51.22
52.86
54.58
56.26
57.56
58.04
57.24
54.92
51.07
46.02
40.33
34.61
29.28
24.57
20.36
16.35
12.17
7.56
2.45
-2.96
-8.30
-13.20
-17.44
-21.08
-24.46
-28.07
-32.32
-37.28
-42.68
-47.97
-52.57
-56.15
-58.76
-60.89
-63.29
-66.85
-72.33
-80.13
-89.88
-100.25
-108.94
-113.23
-110.75
-100.36
-82.67
-59.75
-34.55
-9.90
12.14
30.53
44.98
55.60
62.57
66.08
66.39
63.97
59.56
54.05
48.37
43.37
39.69
37.67
37.32
38.44
40.65
43.60
46.93
50.34
53.46
55.93
57.44
57.79
57.01
55.28
52.74
49.44
45.23
39.98
33.70
26.64
19.26
12.00
5.11
-1.45
-7.97
-14.63
-21.38
-27.86
-33.58
-38.17
-41.61
-44.28
-46.91
-50.30
-55.21
-62.15
-71.13
-81.48
-91.68
-99.47
-102.36
-98.35
-86.75
-68.45
-45.80
-21.78
0.85
20.18
35.36
46.30
53.27
56.55
56.44
53.28
47.70
40.60
33.03
26.07
20.55
16.93
15.28
15.33
16.61
18.63
20.97
23.32
25.50
27.28
28.39
28.54
27.51
25.20
21.74
17.48
12.89
8.44
4.47
1.07
-1.90
-4.88
-8.37
-12.83
-18.49
-25.27
-32.75
-40.32
-47.36
-53.37
-58.18
-61.97
-65.32
-69.06
-74.16
-81.35
-90.70
-101.24
-110.90
-116.89
-116.51
-108.08
-91.65
-68.97
-42.98
-16.81
7.07
27.27
43.35
55.46
63.89
68.86
70.59
69.43
65.97
61.04
55.58
50.42
46.24
43.50
42.34
42.69
44.35
46.97
50.22
53.69
57.03
59.85
61.77
62.45
61.63
59.22
55.29
50.09
43.99
37.46
30.92
24.66
18.72
12.92
6.88
0.17
-7.46
-16.01
-25.15
-34.34
-43.04
-50.93
-58.03
-64.70
-71.57
-79.33
-88.66
-99.92
-112.78
-126.02
-137.33
-143.75
-142.55
-132.13
-112.72
-86.36
-56.26
-25.78
2.44
26.88
47.02
62.85
74.66
82.80
87.65
89.76
89.79
88.35
86.02
83.22
80.23
77.29
74.60
72.37
70.79
70.00
70.03
70.72
71.66
72.32
72.21
71.01
68.72
65.61
62.10
58.49
54.87
51.08
46.87
41.99
36.42
30.37
24.22
18.32
12.85
7.68
2.42
-3.49
-10.45
-18.64
-27.83
-37.58
-47.32
-56.70
-65.64
-74.45
-83.77
-94.36
-106.71
-120.55
-134.50
-146.03
-151.95
-149.43
-136.97
-115.14
-86.41
-54.41
-22.85
5.43
28.84
46.94
59.93
68.27
72.50
73.19
71.08
67.11
62.28
57.42
53.17
49.86
47.53
46.10
45.41
45.40
46.01
47.22
48.91
50.78
52.37
53.09
52.38
49.88
45.56
39.83
33.41
27.13
21.64
17.25
13.76
10.65
7.25
3.03
-2.22
-8.32
-14.78
-21.02
-26.55
-31.22
-35.25
-39.28
-44.17
-50.86
-59.99
-71.55
-84.63
-97.26
-106.75
-110.38
-106.24
-93.87
-74.47
-50.58
-25.21
-1.03
20.18
37.59
51.09
60.82
66.87
69.37
68.57
65.09
59.94
54.35
49.44
45.90
43.89
43.07
42.91
42.95
43.03
43.20
43.59
44.18
44.66
44.52
43.07
39.83
34.65
27.85
20.17
12.51
5.66
-0.11
-5.03
-9.80
-15.13
-21.45
-28.67
-36.19
-43.23
-49.20
-54.04
-58.17
-62.45
-67.84
-75.21
-85.09
-97.46
-111.51
-125.40
-136.41
-141.46
-138.03
-125.06
-103.52
-76.12
-46.58
-18.45
5.75
24.95
39.18
49.17
55.69
59.41
60.82
60.45
58.99
57.31
56.25
56.47
58.19
61.20
64.95
68.78
72.15
74.79
76.60
77.56
77.54
76.33
73.64
69.27
63.21
55.67
47.10
38.04
29.03
20.54
12.88
6.15
0.24
-5.13
-10.39
-15.89
-21.88
-28.32
-34.92
-41.25
-46.90
-51.68
-55.79
-59.79
-64.52
-70.90
-79.73
-91.34
-105.17
-119.56
-131.74
-138.40
-136.64
-125.04
-104.22
-76.76
-46.36
-16.71
9.42
30.60
46.53
57.54
64.32
67.58
68.10
66.85
64.79
62.88
61.82
62.02
63.53
66.10
69.28
72.60
75.70
78.45
80.87
82.99
84.64
85.33
84.44
81.43
76.16
69.11
61.16
53.28
46.16
39.91
34.17
28.29
21.75
14.42
6.65
-0.94
-7.70
-13.24
-17.63
-21.33
-24.98
-29.15
-34.06
-39.51
-45.04
-50.17
-54.63
-58.61
-62.65
-67.56
-74.21
-83.29
-94.95
-108.50
-122.08
-132.91
-137.80
-134.20
-121.04
-99.32
-71.82
-42.26
-14.16
10.03
29.20
43.39
53.25
59.49
62.73
63.49
62.34
60.05
57.55
55.76
55.38
56.64
59.24
62.56
65.94
68.88
71.15
72.70
73.49
73.36
72.11
69.55
65.67
60.62
54.66
48.03
40.99
33.69
26.41
19.44
13.09
7.60
2.93
-1.19
-5.27
-9.77
-14.96
-20.71
-26.54
-31.86
-36.25
-39.64
-42.41
-45.18
-48.71
-53.66
-60.48
-69.19
-79.12
-88.80
-96.06
-98.46
-94.12
-82.40
-64.27
-42.09
-18.82
2.77
20.85
34.63
44.13
49.81
52.15
51.67
48.88
44.52
39.52
34.87
31.39
29.55
29.42
30.72
33.04
35.99
39.27
42.73
46.13
49.14
51.24
51.85
50.48
46.99
41.62
35.05
28.06
21.41
15.48
10.25
5.42
0.61
-4.34
-9.24
-13.61
-16.86
-18.73
-19.41
-19.67
-20.57
-23.10
-27.67
-34.06
-41.44
-48.76
-55.22
-60.50
-64.91
-69.15
-74.15
-80.76
-89.47
-100.04
-111.32
-121.16
-126.89
-126.00
-117.06
-100.30
-77.68
-52.28
-27.37
-5.57
11.70
24.15
32.35
37.25
39.82
40.91
41.15
41.13
41.28
41.99
43.55
46.10
49.56
53.63
57.91
62.05
65.83
69.23
72.30
74.98
77.02
77.95
77.30
74.80
70.48
64.72
58.10
51.23
44.57
38.43
32.89
27.91
23.38
19.19
15.24
11.49
7.92
4.56
1.52
-1.10
-3.24
-4.97
-6.54
-8.38
-10.93
-14.50
-19.16
-24.65
-30.57
-36.54
-42.37
-48.12
-54.10
-60.79
-68.73
-78.39
-89.88
-102.62
-115.04
-124.67
-128.67
-124.66
-111.59
-90.17
-62.75
-32.52
-2.62
24.51
47.35
65.07
77.13
83.23
83.33
77.99
68.47
56.67
44.65
34.12
26.03
20.50
17.04
14.91
13.55
12.75
12.47
12.72
13.24
13.54
13.01
11.19
8.01
3.81
-0.70
-4.71
-7.57
-8.89
-8.66
-7.28
-5.38
-3.65
-2.58
-2.23
-2.20
-1.78
-0.31
2.46
6.10
9.66
11.90
11.79
8.86
3.33
-3.97
-12.00
-19.83
-26.91
-33.17
-38.95
-44.95
-51.90
-60.30
-70.01
-79.90
-87.86
-91.33
-88.11
-77.31
-59.78
-37.90
-14.80
6.74
25.03
39.50
50.41
58.16
63.00
64.94
64.12
61.05
56.65
52.12
48.64
47.02
47.61
50.18
54.00
57.79
59.93
58.79
53.26
43.28
29.95
15.24
1.17
-11.05
-21.56
-31.50
-42.18
-53.90
-65.24
-73.24
-74.54
-66.71
-49.20
-23.38
8.40
43.96
81.77
120.58
158.27
191.16
214.11
221.90
211.10
181.36
135.59
78.88
17.14
-43.77
-98.21
-140.56
-165.67
-169.95
-153.17
-119.50
-76.97
-35.36
-3.21
14.47
17.01
7.14
-10.69
-31.98
-53.03
-70.99
-83.68
-89.61
-88.30
-80.58
-68.57
-55.08
-42.78
-33.38
-27.28
-23.77
-21.58
-19.49
-16.73
-13.20
-9.28
-5.56
-2.54
-0.31
1.43
3.33
6.00
9.77
14.53
19.70
24.46
28.03
29.99
30.41
29.76
28.82
28.23
28.32
28.91
29.50
29.53
28.65
27.02
25.28
24.25
24.63
26.67
30.05
34.08
37.93
40.89
42.45
42.41
40.88
38.33
35.44
32.90
31.11
29.97
28.89
27.11
24.13
19.97
15.04
9.72
3.81
-3.88
-15.38
-33.02
-58.55
-92.10
-131.45
-171.76
-206.25
-227.79
-231.08
-214.52
-180.92
-136.63
-89.39
-45.83
-9.82
17.73
37.87
52.23
61.97
67.79
70.44
71.28
72.21
75.09
80.87
89.14
98.28
106.16
110.98
111.73
108.37
101.52
92.10
81.02
69.00
56.56
44.11
32.03
20.83
11.08
3.25
-2.41
-6.21
-8.90
-11.51
-14.95
-19.63
-25.33
-31.30
-36.72
-41.02
-44.16
-46.73
-49.64
-53.86
-59.80
-67.06
-74.25
-79.31
-80.16
-75.40
-64.83
-49.58
-31.54
-12.82
4.98
20.92
34.65
46.01
54.80
60.69
63.47
63.25
60.67
56.90
53.42
51.67
52.63
56.44
62.20
68.02
71.45
70.09
62.40
48.18
28.76
6.65
-15.21
-34.20
-48.70
-58.20
-63.02
-63.77
-60.81
-54.20
-43.96
-30.56
-15.27
0.08
13.58
24.03
31.45
36.88
41.84
47.51
54.22
61.30
67.42
71.11
71.24
67.43
60.03
49.91
38.04
25.12
11.40
-3.17
-18.46
-33.78
-47.56
-57.52
-61.21
-56.68
-43.14
-21.36
6.28
36.07
63.70
85.26
98.22
102.14
98.69
90.89
81.97
74.36
69.14
66.16
64.55
63.36
61.91
59.94
57.44
54.57
51.48
48.29
45.05
41.67
37.96
33.65
28.47
22.23
14.80
6.15
-3.70
-14.60
-26.31
-38.46
-50.60
-62.28
-73.16
-83.15
-92.42
-101.36
-110.44
-119.96
-129.85
-139.68
-148.79
-156.64
-163.21
-169.10
-175.44
-183.48
-194.05
-207.09
-221.50
-235.31
-246.11
-251.50
-249.59
-239.28
-220.55
-194.49
-163.19
-129.38
-95.89
-65.03
-38.18
-15.66
3.10
19.13
33.55
47.18
60.46
73.32
85.30
95.73
103.93
109.48
112.38
113.08
112.30
110.79
109.14
107.61
106.11
104.32
101.84
98.34
93.63
87.71
80.74
72.94
64.54
55.72
46.65
37.55
28.68
20.40
13.05
6.86
1.89
-2.01
-5.14
-7.83
-10.37
-12.90
-15.44
-17.98
-20.46
-22.79
-24.93
-26.86
-28.63
-30.46
-32.80
-36.20
-41.09
-47.39
-54.25
-60.12
-63.08
-61.56
-54.90
-43.70
-29.55
-14.60
-0.86
10.34
18.40
23.40
25.78
26.12
24.96
22.84
20.22
17.60
15.44
14.08
13.74
14.39
15.83
17.73
19.80
21.84
23.80
25.68
27.41
28.79
29.54
29.35
28.07
25.75
22.64
19.13
15.57
12.30
9.49
7.17
5.27
3.56
1.76
-0.38
-2.96
-5.82
-8.66
-11.07
-12.76
-13.68
-14.03
-14.20
-14.56
-15.40
-16.75
-18.42
-20.19
-21.88
-23.47
-25.22
-27.58
-31.05
-36.06
-42.80
-51.03
-59.98
-68.36
-74.54
-76.95
-74.50
-67.03
-55.41
-41.27
-26.51
-12.84
-1.42
7.16
12.72
15.23
14.85
11.84
6.74
0.31
-6.57
-13.12
-18.86
-23.65
-27.71
-31.41
-35.10
-38.99
-43.09
-47.29
-51.51
-55.82
-60.42
-65.57
-71.42
-77.84
-84.40
-90.34
-94.70
-96.32
-94.02
-86.86
-74.53
-57.63
-37.80
-17.30
1.65
17.62
30.46
41.04
50.64
60.08
69.33
77.57
83.74
87.19
88.00
86.85
84.54
81.67
78.32
74.25
69.14
62.91
55.74
47.92
39.69
31.06
21.89
12.12
1.98
-7.88
-16.45
-22.69
-25.82
-25.55
-22.24
-16.64
-9.84
-2.95
3.04
7.44
9.90
10.42
9.33
7.17
4.51
1.83
-0.56
-2.50
-3.87
-4.52
-4.19
-2.57
0.50
5.00
10.60
16.80
23.04
28.89
34.11
38.60
42.33
45.29
47.46
48.84
49.51
49.62
49.27
48.56
47.44
45.82
43.64
40.95
37.99
35.12
32.74
31.10
30.31
30.16
30.25
30.14
29.45
28.00
25.87
23.29
20.55
17.89
15.50
13.43
11.66
10.12
8.64
7.10
5.35
3.31
0.93
-1.85
-5.18
-9.20
-14.06
-19.74
-25.89
-31.85
-36.72
-39.60
-39.77
-36.88
-30.99
-22.59
-12.45
-1.54
9.09
18.49
25.93
31.01
33.77
34.51
33.81
32.32
30.57
28.99
27.76
26.91
26.32
25.80
25.18
24.37
23.46
22.64
22.16
22.21
22.82
23.83
24.98
25.92
26.34
26.03
24.86
22.89
20.28
17.37
14.59
12.30
10.74
9.86
9.40
9.02
8.49
7.71
6.82
5.98
5.25
4.57
3.70
2.42
0.56
-1.84
-4.57
-7.35
-9.90
-12.15
-14.20
-16.31
-18.75
-21.67
-25.02
-28.54
-31.87
-34.69
-36.86
-38.45
-39.73
-41.05
-42.69
-44.75
-47.09
-49.27
-50.64
-50.50
-48.24
-43.55
-36.47
-27.46
-17.27
-6.83
2.93
11.28
17.72
22.05
24.37
24.95
24.21
22.59
20.51
18.29
16.16
14.29
12.75
11.64
11.03
11.02
11.62
12.74
14.17
15.69
17.06
18.12
18.77
18.93
18.55
17.61
16.23
14.62
13.05
11.69
10.49
9.21
7.51
5.13
2.04
-1.45
-4.91
-7.93
-10.31
-12.12
-13.65
-15.24
-17.13
-19.39
-21.94
-24.59
-27.18
-29.59
-31.77
-33.81
-35.84
-38.05
-40.67
-43.73
-47.04
-50.02
-51.85
-51.63
-48.64
-42.69
-34.08
-23.59
-12.22
-0.97
9.27
17.87
24.39
28.65
30.74
30.99
29.85
27.79
25.23
22.46
19.69
17.12
14.95
13.37
12.49
12.33
12.82
13.85
15.27
16.96
18.73
20.37
21.63
22.30
22.24
21.42
19.94
17.99
15.76
13.46
11.18
8.96
6.74
4.44
1.99
-0.53
-2.97
-5.16
-7.01
-8.54
-9.89
-11.25
-12.80
-14.58
-16.58
-18.70
-20.78
-22.68
-24.32
-25.71
-27.05
-28.66
-30.91
-34.02
-37.93
-42.14
-45.83
-48.01
-47.78
-44.61
-38.52
-30.08
-20.27
-10.20
-0.88
7.04
13.28
17.87
21.02
23.01
24.09
24.44
24.23
23.60
22.65
21.53
20.41
19.49
18.98
19.08
19.93
21.51
23.65
26.10
28.50
30.54
31.98
32.63
32.44
31.46
29.84
27.79
25.53
23.26
21.08
19.04
17.16
15.45
13.92
12.53
11.18
9.73
8.10
6.23
4.15
1.94
-0.29
-2.44
-4.46
-6.37
-8.23
-10.14
-12.19
-14.36
-16.64
-18.90
-21.00
-22.88
-24.50
-25.99
-27.54
-29.42
-31.93
-35.18
-39.00
-42.90
-45.99
-47.29
-46.02
-41.90
-35.24
-26.86
-17.74
-8.82
-0.74
6.14
11.67
15.79
18.55
20.09
20.64
20.54
20.07
19.49
18.91
18.40
17.93
17.49
17.05
16.60
16.22
16.10
16.46
17.48
19.16
21.25
23.37
25.11
26.20
26.56
26.24
25.38
24.02
22.19
19.89
17.16
14.12
10.92
7.72
4.63
1.74
-0.84
-3.06
-4.87
-6.24
-7.23
-7.96
-8.57
-9.22
-10.05
-11.10
-12.34
-13.66
-14.97
-16.23
-17.55
-19.15
-21.32
-24.27
-28.00
-32.10
-35.84
-38.23
-38.33
-35.55
-29.83
-21.67
-12.01
-1.98
7.39
15.29
21.28
25.20
27.16
27.48
26.55
24.80
22.57
20.12
17.56
14.96
12.47
10.27
8.67
7.96
8.36
9.90
12.33
15.27
18.27
20.87
22.77
23.76
23.77
22.85
21.16
18.95
16.50
14.02
11.61
9.20
6.67
3.89
0.86
-2.29
-5.38
-8.32
-11.10
-13.85
-16.68
-19.62
-22.58
-25.34
-27.73
-29.69
-31.25
-32.63
-34.06
-35.79
-38.01
-40.85
-44.24
-47.82
-50.91
-52.50
-51.51
-47.18
-39.33
-28.54
-15.98
-3.16
8.57
18.25
25.47
30.22
32.80
33.58
32.93
31.22
28.88
26.36
24.09
22.33
21.14
20.39
19.88
19.47
19.20
19.26
19.81
20.84
22.00
22.84
22.83
21.71
19.58
16.76
13.75
10.95
8.57
6.63
5.04
3.72
2.55
1.44
0.32
-0.88
-2.16
-3.44
-4.65
-5.72
-6.71
-7.83
-9.35
-11.51
-14.39
-17.87
-21.67
-25.41
-28.81
-31.77
-34.49
-37.38
-40.97
-45.60
-51.18
-57.12
-62.27
-65.15
-64.47
-59.43
-50.14
-37.49
-23.04
-8.53
4.58
15.33
23.36
28.77
31.91
33.31
33.45
32.83
31.89
30.91
30.08
29.39
28.80
28.25
27.77
27.52
27.66
28.29
29.40
30.80
32.22
33.33
33.81
33.44
32.10
29.84
26.86
23.51
20.13
16.93
14.02
11.28
8.52
5.58
2.39
-0.99
-4.39
-7.63
-10.56
-13.12
-15.38
-17.52
-19.74
-22.20
-24.91
-27.70
-30.30
-32.48
-34.19
-35.70
-37.53
-40.32
-44.57
-50.31
-56.89
-62.99
-66.95
-67.28
-63.07
-54.37
-42.12
-27.86
-13.26
0.29
11.85
21.00
27.70
32.13
34.58
35.41
35.06
33.90
32.35
30.72
29.29
28.26
27.73
27.74
28.22
29.11
30.34
31.86
33.58
35.35
36.86
37.70
37.52
36.11
33.48
29.88
25.64
21.14
16.69
12.51
8.71
5.25
1.92
-1.56
-5.49
-9.90
-14.64
-19.28
-23.39
-26.72
-29.36
-31.62
-34.01
-36.99
-40.86
-45.61
-50.84
-55.68
-58.94
-59.34
-55.97
-48.65
-38.06
-25.62
-13.02
-1.69
7.52
14.41
19.22
22.29
23.94
24.33
23.64
22.09
19.99
17.73
15.67
14.10
13.18
12.98
13.47
14.55
16.00
17.58
19.02
20.14
20.85
21.19
21.18
20.82
20.01
18.64
16.59
13.79
10.30
6.30
1.97
-2.48
-6.86
-11.05
-15.04
-18.93
-22.92
-27.36
-32.52
-38.47
-44.88
-50.90
-55.30
-56.79
-54.35
-47.74
-37.48
-24.81
-11.27
1.73
13.17
22.54
29.75
34.89
38.13
39.62
39.50
37.94
35.21
31.68
27.84
24.23
21.31
19.40
18.55
18.61
19.12
19.64
19.76
19.24
18.06
16.35
14.31
12.06
9.63
6.92
3.84
0.30
-3.60
-7.67
-11.68
-15.40
-18.78
-21.93
-25.07
-28.48
-32.51
-37.41
-43.35
-50.20
-57.35
-63.61
-67.42
-67.22
-62.08
-52.06
-38.35
-22.85
-7.62
5.76
16.46
24.42
30.00
33.70
35.90
36.88
36.82
35.98
34.67
33.28
32.21
31.78
32.11
33.13
34.58
36.07
37.21
37.74
37.55
36.67
35.14
32.96
30.00
26.06
21.00
14.92
8.14
1.19
-5.42
-11.29
-16.34
-20.72
-24.75
-28.83
-33.38
-38.78
-45.26
-52.87
-61.13
-69.01
-74.95
-77.23
-74.44
-66.09
-52.78
-36.12
-18.21
-1.11
13.65
25.34
33.91
39.73
43.38
45.31
45.91
45.47
44.26
42.56
40.73
39.07
37.82
37.06
36.69
36.57
36.52
36.41
36.14
35.60
34.64
33.11
30.89
27.99
24.46
20.46
16.10
11.47
6.64
1.66
-3.36
-8.26
-12.88
-17.10
-20.94
-24.60
-28.42
-32.85
-38.27
-44.78
-52.02
-59.06
-64.54
-66.91
-64.97
-58.23
-47.11
-32.85
-17.11
-1.57
12.48
24.33
33.72
40.75
45.67
48.78
50.43
50.99
50.86
50.37
49.79
49.34
49.12
49.22
49.63
50.35
51.33
52.47
53.66
54.75
55.52
55.67
54.87
52.82
49.41
44.79
39.38
33.87
28.93
25.08
22.54
21.15
20.51
20.15
19.69
18.94
17.93
16.84
15.81
14.92
14.10
13.16
11.88
10.12
7.87
5.22
2.32
-0.68
-3.70
-6.73
-9.83
-13.09
-16.59
-20.39
-24.48
-28.71
-32.91
-36.79
-40.12
-42.86
-45.13
-47.36
-50.11
-53.93
-59.12
-65.48
-72.16
-77.73
-80.47
-78.81
-71.87
-59.86
-44.09
-26.67
-9.90
4.39
15.25
22.61
27.03
29.31
30.11
29.86
28.84
27.28
25.54
24.05
23.16
23.06
23.69
24.81
26.08
27.31
28.41
29.46
30.53
31.59
32.51
32.99
32.78
31.70
29.79
27.23
24.32
21.30
18.35
15.51
12.74
9.95
7.08
4.10
1.07
-1.95
-4.81
-7.38
-9.51
-11.21
-12.57
-13.89
-15.62
-18.27
-22.21
-27.52
-33.84
-40.33
-45.79
-48.98
-48.92
-45.20
-38.08
-28.49
-17.71
-7.02
2.55
10.47
16.64
21.24
24.51
26.63
27.71
27.83
27.20
26.14
25.04
24.21
23.74
23.51
23.25
22.65
21.59
20.13
18.42
16.65
14.84
12.93
10.72
8.05
4.91
1.48
-1.90
-4.87
-7.15
-8.66
-9.59
-10.27
-11.06
-12.24
-13.88
-15.81
-17.82
-19.71
-21.44
-23.22
-25.43
-28.41
-32.45
-37.50
-43.10
-48.37
-52.17
-53.39
-51.28
-45.71
-37.27
-27.09
-16.46
-6.56
1.88
8.63
13.82
17.74
20.70
22.89
24.36
25.17
25.40
25.26
25.03
25.00
25.37
26.14
27.13
28.08
28.78
29.11
29.09
28.79
28.28
27.48
26.29
24.58
22.30
19.47
16.27
12.96
9.73
6.71
3.83
0.92
-2.27
-5.83
-9.69
-13.60
-17.21
-20.23
-22.57
-24.40
-26.06
-28.00
-30.61
-34.05
-38.19
-42.55
-46.36
-48.67
-48.61
-45.63
-39.72
-31.45
-21.84
-12.07
-3.15
4.32
10.23
14.81
18.42
21.34
23.63
25.19
25.86
25.58
24.46
22.79
20.95
19.26
17.87
16.78
15.85
14.98
14.15
13.42
12.88
12.54
12.33
12.08
11.64
10.95
10.03
9.01
8.03
7.16
6.40
5.62
4.70
3.53
2.04
0.25
-1.78
-3.98
-6.24
-8.49
-10.67
-12.76
-14.74
-16.58
-18.25
-19.78
-21.32
-23.07
-25.18
-27.60
-29.92
-31.49
-31.54
-29.55
-25.45
-19.68
-13.04
-6.40
-0.43
4.47
8.23
10.94
12.73
13.81
14.32
14.41
14.23
13.89
13.51
13.15
12.85
12.59
12.34
12.06
11.72
11.36
11.07
10.93
10.96
11.06
11.05
10.66
9.75
8.26
6.33
4.18
2.09
0.23
-1.33
-2.67
-3.87
-5.03
-6.09
-6.97
-7.53
-7.75
-7.75
-7.79
-8.12
-8.96
-10.26
-11.87
-13.50
-14.92
-16.05
-16.93
-17.68
-18.44
-19.27
-20.28
-21.52
-23.09
-24.92
-26.69
-27.86
-27.74
-25.82
-22.02
-16.73
-10.74
-4.95
-0.10
3.46
5.75
7.00
7.52
7.54
7.18
6.50
5.56
4.52
3.60
3.04
3.01
3.53
4.50
5.70
6.91
7.97
8.85
9.63
10.38
11.11
11.74
12.10
12.04
11.49
10.47
9.17
7.77
6.48
5.41
4.52
3.74
2.85
1.72
0.20
-1.74
-4.06
-6.65
-9.34
-11.98
-14.45
-16.65
-18.56
-20.18
-21.61
-22.93
-24.22
-25.51
-26.64
-27.31
-27.10
-25.58
-22.56
-18.14
-12.80
-7.18
-1.98
2.28
5.36
7.28
8.22
8.38
7.92
7.00
5.77
4.43
3.23
2.42
2.17
2.50
3.32
4.46
5.70
6.90
7.90
8.63
8.99
8.89
8.31
7.26
5.80
4.03
2.12
0.23
-1.46
-2.82
-3.80
-4.52
-5.14
-5.88
-6.94
-8.33
-9.90
-11.39
-12.53
-13.18
-13.40
-13.37
-13.40
-13.74
-14.52
-15.73
-17.15
-18.46
-19.25
-19.12
-17.76
-15.12
-11.43
-7.15
-2.84
0.99
4.01
6.23
7.72
8.64
9.12
9.20
8.91
8.32
7.60
6.99
6.67
6.74
7.13
7.60
7.95
8.03
7.82
7.43
6.99
6.60
6.21
5.70
4.94
3.88
2.61
1.29
0.12
-0.79
-1.47
-2.07
-2.70
-3.49
-4.47
-5.62
-6.87
-8.16
-9.47
-10.81
-12.21
-13.68
-15.27
-16.99
-18.90
-20.97
-23.11
-25.03
-26.35
-26.56
-25.29
-22.42
-18.13
-12.94
-7.49
-2.39
1.90
5.18
7.46
8.92
9.81
10.34
10.68
10.91
11.02
10.99
10.83
10.60
10.39
10.25
10.17
10.10
10.02
9.86
9.62
9.34
9.02
8.60
8.01
7.18
6.10
4.89
3.72
2.80
2.30
2.23
2.42
2.57
2.33
1.45
-0.17
-2.42
-5.04
-7.73
-10.25
-12.45
-14.35
-16.07
-17.83
-19.83
-22.18
-24.76
-27.23
-29.01
-29.53
-28.38
-25.52
-21.29
-16.28
-11.17
-6.49
-2.54
0.63
3.13
5.14
6.74
8.03
9.04
9.81
10.43
11.02
11.68
12.46
13.34
14.24
15.05
15.68
16.06
16.26
16.32
16.29
16.16
15.86
15.28
14.34
13.09
11.64
10.20
8.99
8.10
7.45
6.84
6.01
4.75
3.00
0.81
-1.62
-4.11
-6.49
-8.62
-10.45
-12.02
-13.43
-14.90
-16.70
-19.11
-22.23
-25.97
-29.93
-33.51
-35.95
-36.62
-35.11
-31.42
-25.92
-19.29
-12.36
-5.90
-0.44
3.74
6.62
8.33
9.14
9.34
9.18
8.88
8.61
8.49
8.62
9.10
9.97
11.17
12.55
13.89
14.98
15.69
16.03
16.08
15.87
15.41
14.58
13.22
11.32
8.98
6.51
4.20
2.33
1.01
0.16
-0.44
-1.02
-1.77
-2.74
-3.89
-5.08
-6.17
-7.09
-7.89
-8.66
-9.63
-10.99
-12.90
-15.40
-18.38
-21.53
-24.37
-26.29
-26.69
-25.19
-21.68
-16.45
-10.09
-3.35
3.07
8.63
13.02
16.14
18.06
18.93
18.92
18.24
17.02
15.42
13.58
11.71
10.00
8.60
7.66
7.22
7.22
7.56
8.10
8.68
9.20
9.57
9.70
9.55
9.06
8.33
7.47
6.67
6.00
5.42
4.72
3.65
2.06
-0.00
-2.36
-4.77
-7.04
-9.14
-11.20
-13.38
-15.87
-18.71
-21.74
-24.63
-26.89
-27.95
-27.30
-24.63
-19.99
-13.83
-6.88
-0.02
6.02
10.73
13.93
15.71
16.30
16.01
15.15
13.99
12.77
11.68
10.86
10.37
10.24
10.43
10.85
11.39
11.94
12.45
12.89
13.29
13.67
13.99
14.12
13.90
13.15
11.87
10.12
8.09
5.98
3.94
2.08
0.36
-1.24
-2.78
-4.24
-5.58
-6.72
-7.68
-8.56
-9.52
-10.78
-12.49
-14.68
-17.18
-19.62
-21.46
-22.17
-21.30
-18.73
-14.57
-9.23
-3.29
2.63
7.99
12.36
15.55
17.56
18.60
18.96
18.94
18.72
18.36
17.80
17.01
16.08
15.11
14.24
13.50
12.78
11.96
10.95
9.77
8.51
7.25
6.00
4.67
3.13
1.28
-0.83
-3.04
-5.13
-6.85
-8.04
-8.68
-8.90
-8.95
-9.11
-9.66
-10.76
-12.46
-14.68
-17.24
-19.88
-22.31
-24.33
-25.81
-26.82
-27.56
-28.25
-28.99
-29.61
-29.69
-28.64
-25.98
-21.56
-15.63
-8.77
-1.68
5.00
10.87
15.78
19.71
22.74
25.00
26.63
27.75
28.44
28.74
28.56
27.82
26.51
24.70
22.56
20.30
18.14
16.20
14.49
13.03
11.77
10.73
9.88
9.15
8.45
7.61
6.52
5.16
3.57
1.81
-0.11
-2.22
-4.60
-7.32
-10.29
-13.27
-15.98
-18.13
-19.57
-20.36
-20.73
-21.01
-21.48
-22.30
-23.50
-24.91
-26.20
-26.97
-26.79
-25.30
-22.36
-18.11
-12.94
-7.42
-2.11
2.54
6.28
9.02
10.81
11.78
12.16
12.23
12.29
12.53
12.99
13.54
14.01
14.22
14.18
13.99
13.78
13.63
13.47
13.13
12.43
11.24
9.57
7.57
5.47
3.49
1.78
0.39
-0.65
-1.36
-1.76
-1.96
-2.13
-2.52
-3.34
-4.66
-6.40
-8.31
-10.19
-11.99
-13.88
-16.15
-19.07
-22.68
-26.67
-30.39
-33.09
-34.02
-32.73
-29.18
-23.69
-16.93
-9.68
-2.70
3.40
8.26
11.76
13.96
15.03
15.19
14.67
13.71
12.49
11.27
10.23
9.56
9.37
9.69
10.51
11.74
13.31
15.12
17.03
18.89
20.52
21.73
22.33
22.22
21.35
19.74
17.46
14.65
11.55
8.44
5.61
3.25
1.39
-0.09
-1.40
-2.71
-4.09
-5.54
-7.01
-8.49
-10.10
-12.00
-14.29
-17.03
-20.19
-23.68
-27.44
-31.32
-35.01
-37.97
-39.51
-38.94
-35.86
-30.31
-22.90
-14.54
-6.30
1.00
6.87
11.18
14.10
15.84
16.64
16.68
16.15
15.27
14.24
13.25
12.41
11.75
11.24
10.85
10.55
10.35
10.31
10.51
10.96
11.69
12.65
13.78
14.96
16.11
17.12
17.89
18.30
18.17
17.33
15.66
13.20
10.17
6.90
3.74
0.90
-1.60
-3.91
-6.21
-8.58
-11.01
-13.33
-15.41
-17.21
-18.87
-20.64
-22.79
-25.49
-28.78
-32.48
-36.28
-39.66
-42.04
-42.81
-41.47
-37.82
-32.03
-24.70
-16.64
-8.74
-1.63
4.39
9.29
13.19
16.20
18.29
19.43
19.63
19.06
18.11
17.17
16.61
16.57
17.00
17.73
18.57
19.38
20.14
20.80
21.30
21.50
21.20
20.25
18.61
16.39
13.86
11.36
9.13
7.30
5.74
4.20
2.36
-0.00
-2.92
-6.16
-9.37
-12.16
-14.39
-16.16
-17.87
-20.03
-23.00
-26.85
-31.30
-35.76
-39.45
-41.59
-41.55
-38.97
-33.91
-26.77
-18.26
-9.21
-0.45
7.45
14.17
19.68
24.10
27.63
30.44
32.63
34.28
35.49
36.41
37.24
38.13
39.15
40.25
41.28
42.16
42.94
43.83
45.03
46.56
48.06
48.92
48.53
46.77
44.12
41.66
40.57
41.50
44.15
47.23
48.86
47.21
41.17
30.66
16.52
0.12
-17.14
-34.20
-50.54
-65.95
-80.34
-93.47
-104.91
-114.05
-120.12
-122.30
-119.55
-110.68
-94.72
-71.59
-42.99
-12.60
14.51
33.44
41.28
38.26
27.57
13.98
1.83
-6.36
-10.34
-11.24
-10.47
-8.77
-6.12
-2.22
2.88
8.48
13.53
17.21
19.31
20.32
21.12
22.43
24.45
26.73
28.44
28.79
27.42
24.56
20.89
17.24
14.17
11.78
9.73
7.42
4.27
0.12
-4.83
-9.98
-14.67
-18.44
-21.28
-23.60
-26.08
-29.34
-33.71
-39.05
-44.79
-50.01
-53.74
-55.12
-53.58
-49.01
-41.77
-32.66
-22.70
-12.98
-4.32
2.85
8.51
12.96
16.61
19.76
22.59
25.05
27.07
28.59
29.62
30.28
30.74
31.12
31.56
32.17
33.02
34.15
35.50
36.92
38.14
38.96
39.16
38.72
37.69
36.20
34.37
32.30
30.02
27.51
24.70
21.55
18.04
14.22
10.23
6.25
2.42
-1.21
-4.71
-8.24
-11.95
-15.89
-20.00
-24.09
-27.98
-31.50
-34.67
-37.64
-40.73
-44.28
-48.52
-53.32
-58.20
-62.21
-64.25
-63.30
-58.81
-50.92
-40.44
-28.55
-16.53
-5.39
4.36
12.61
19.48
25.14
29.71
33.20
35.65
37.17
37.96
38.26
38.20
37.88
37.28
36.38
35.22
33.93
32.66
31.48
30.41
29.38
28.21
26.78
25.02
22.89
20.39
17.55
14.45
11.23
8.10
5.30
3.00
1.23
-0.14
-1.30
-2.44
-3.66
-4.94
-6.22
-7.51
-8.94
-10.69
-12.99
-16.01
-19.82
-24.38
-29.58
-35.18
-40.72
-45.54
-48.75
-49.49
-47.14
-41.61
-33.49
-23.82
-13.87
-4.74
2.89
8.83
13.22
16.37
18.52
19.84
20.37
20.17
19.42
18.31
17.18
16.24
15.69
15.62
16.04
16.95
18.24
19.72
21.12
22.12
22.44
21.91
20.58
18.62
16.33
13.93
11.60
9.35
7.03
4.46
1.46
-2.04
-5.95
-10.02
-13.97
-17.55
-20.70
-23.58
-26.49
-29.79
-33.74
-38.41
-43.51
-48.34
-51.97
-53.30
-51.42
-46.00
-37.35
-26.47
-14.62
-3.08
7.25
15.93
22.88
28.23
32.18
34.87
36.40
36.88
36.43
35.25
33.50
31.43
29.26
27.22
25.47
24.11
23.12
22.40
21.78
21.11
20.25
19.12
17.59
15.63
13.27
10.59
7.82
5.27
3.20
1.76
0.88
0.24
-0.63
-2.18
-4.67
-8.07
-12.12
-16.48
-20.81
-24.89
-28.69
-32.28
-35.86
-39.62
-43.73
-48.23
-52.83
-56.85
-59.36
-59.26
-55.77
-48.66
-38.44
-26.25
-13.54
-1.69
8.30
16.00
21.43
24.97
27.11
28.35
29.07
29.52
29.90
30.33
30.86
31.48
32.16
32.83
33.41
33.97
34.59
35.38
36.30
37.14
37.57
37.21
35.86
33.56
30.60
27.37
24.23
21.38
18.85
16.51
14.25
11.99
9.68
7.32
4.87
2.26
-0.56
-3.63
-6.90
-10.29
-13.65
-16.87
-19.87
-22.60
-25.10
-27.41
-29.66
-32.03
-34.86
-38.45
-43.01
-48.36
-53.90
-58.56
-61.10
-60.45
-56.14
-48.42
-38.26
-27.00
-15.95
-6.04
2.25
8.88
14.06
18.11
21.26
23.68
