1523523148.00
64.000000
-0.00
-0.00
-0.00
-0.00
-0.00
-0.00
-0.00
-0.00
-0.00
-0.00
0.00
0.01
0.01
-0.00
-0.03
-0.05
-0.05
0.00
0.13
0.36
0.66
1.01
1.37
1.72
2.06
2.40
2.79
3.24
3.80
4.42
5.06
5.66
6.20
6.68
7.15
7.68
8.31
9.14
10.09
11.04
11.88
12.56
13.14
13.76
14.65
15.96
17.91
20.32
22.90
25.38
27.58
29.57
31.68
34.32
37.81
42.54
48.15
54.10
59.83
64.97
69.58
74.14
79.34
85.71
93.76
103.00
112.62
121.73
129.77
136.75
143.30
150.75
157.77
166.64
177.95
191.79
206.97
220.57
228.25
225.36
208.53
176.87
132.76
80.05
23.07
-34.94
-92.44
-149.16
-205.23
-260.37
-313.74
-363.87
-409.83
-450.91
-486.50
-515.74
-537.23
-549.22
-549.96
-538.37
-514.21
-478.67
-433.88
-382.45
-327.02
-269.84
-212.63
-156.66
-102.95
-52.37
-5.90
35.58
71.43
101.35
125.50
144.38
158.69
169.15
176.37
180.75
182.57
182.07
179.51
175.23
169.65
163.18
156.15
148.81
141.30
133.69
126.02
118.33
110.69
103.16
95.80
88.68
81.83
75.25
68.95
62.95
57.25
51.86
46.78
42.03
37.59
33.45
29.61
26.07
22.81
19.83
17.11
14.67
12.48
10.54
8.83
7.35
6.07
4.97
4.05
3.27
2.62
2.09
1.65
1.30
1.01
0.79
0.61
0.47
0.37
0.29
0.23
0.19
0.17
0.16
0.16
0.17
0.18
0.21
0.24
0.27
0.31
0.36
0.40
0.44
0.49
0.54
0.59
0.64
0.70
0.76
0.82
0.89
0.97
1.05
1.14
1.25
1.36
1.49
1.64
1.80
1.99
2.19
2.42
2.67
2.94
3.24
3.58
3.95
4.35
4.78
5.26
5.77
6.31
6.90
7.53
8.21
8.92
9.69
10.49
11.35
12.25
13.19
14.18
15.25
16.37
17.55
18.79
20.06
21.33
22.53
23.58
24.39
24.83
24.79
24.14
22.82
20.77
18.02
14.62
10.65
6.31
1.78
-2.73
-7.01
-10.87
-14.14
-16.73
-18.56
-19.64
-19.99
-19.69
-18.85
-17.59
-16.01
-14.25
-12.41
-10.55
-8.71
-6.88
-5.07
-3.26
-1.45
0.38
2.21
4.00
5.74
7.45
9.20
10.97
12.81
14.75
16.84
19.06
21.35
23.71
26.16
28.87
31.74
34.79
38.09
41.61
45.21
48.74
52.07
55.23
58.51
61.88
65.50
69.55
73.96
78.42
82.46
85.63
87.77
89.19
89.82
89.98
89.89
89.32
87.48
83.02
74.22
59.05
40.52
19.98
-1.17
-21.84
-41.50
-60.29
-78.94
-98.56
-120.36
-145.11
-173.38
-204.02
-234.18
-259.79
-276.86
-282.86
-277.83
-264.44
-246.88
-229.85
-216.25
-206.53
-198.89
-190.28
-177.67
-158.99
-133.61
-102.33
-67.35
-31.31
3.17
33.91
59.46
79.08
92.67
100.60
103.65
102.69
98.88
93.50
87.78
82.72
78.92
76.59
75.51
75.29
75.46
75.76
76.13
76.56
76.89
76.63
75.08
71.52
65.56
57.40
47.81
37.88
28.71
20.95
14.70
9.51
4.59
-0.86
-7.34
-14.89
-23.03
-30.96
-37.84
-43.15
-46.88
-49.66
-52.56
-56.87
-63.70
-73.55
-86.02
-99.49
-111.33
-118.31
-117.57
-107.47
-88.27
-62.15
-32.54
-3.12
23.16
44.69
61.19
73.20
81.54
86.80
89.26
89.04
86.39
81.83
76.22
70.55
65.73
62.29
60.40
59.82
60.15
60.97
61.95
62.80
63.26
63.04
61.80
59.23
55.17
49.68
43.08
35.86
28.57
21.64
15.32
9.59
4.19
-1.23
-7.07
-13.65
-21.07
-29.18
-37.59
-45.69
-52.92
-58.93
-63.78
-68.00
-72.50
-78.33
-86.32
-96.71
-108.76
-120.58
-129.35
-131.98
-126.09
-110.84
-87.39
-58.59
-28.09
0.77
25.73
45.86
61.30
72.64
80.51
85.31
87.33
86.89
84.54
80.95
76.88
72.98
69.71
67.30
65.82
65.22
65.32
65.89
66.57
66.97
66.64
65.20
62.45
58.39
53.25
47.38
41.11
34.71
28.34
22.08
16.02
10.29
5.02
0.33
-3.81
-7.63
-11.55
-16.05
-21.51
-28.03
-35.32
-42.80
-49.81
-55.88
-60.94
-65.40
-70.04
-75.74
-83.26
-92.73
-103.49
-113.86
-121.36
-123.23
-117.29
-102.73
-80.51
-53.13
-24.05
3.41
26.83
45.04
57.99
66.28
70.69
71.90
70.48
67.03
62.34
57.32
52.91
49.83
48.43
48.63
50.08
52.25
54.64
56.79
58.36
59.03
58.48
56.48
52.95
47.96
41.76
34.81
27.53
20.33
13.47
7.06
1.12
-4.41
-9.64
-14.76
-20.00
-25.65
-31.88
-38.70
-45.85
-52.96
-59.59
-65.47
-70.57
-75.17
-79.80
-85.15
-91.95
-100.64
-111.07
-122.12
-131.57
-136.49
-134.01
-122.35
-101.60
-73.86
-42.58
-11.54
16.26
39.16
56.82
69.73
78.68
84.30
86.94
86.90
84.53
80.40
75.28
69.99
65.21
61.39
58.68
57.02
56.22
56.11
56.49
57.16
57.77
57.83
56.84
54.48
50.67
45.66
39.90
33.89
28.02
22.48
17.20
11.97
6.60
1.03
-4.56
-9.95
-15.01
-19.86
-24.87
-30.52
-37.05
-44.32
-51.82
-58.82
-64.80
-69.66
-73.88
-78.29
-83.93
-91.64
-101.72
-113.65
-125.72
-135.27
-139.14
-134.57
-120.30
-97.03
-67.42
-35.26
-4.35
22.55
44.07
60.21
71.65
79.31
83.88
85.82
85.48
83.28
79.75
75.54
71.27
67.49
64.52
62.50
61.41
61.18
61.64
62.52
63.43
63.90
63.42
61.62
58.39
53.88
48.46
42.60
36.68
30.89
25.25
19.66
13.98
8.18
2.27
-3.65
-9.58
-15.58
-21.79
-28.33
-35.21
-42.24
-49.08
-55.34
-60.81
-65.51
-69.80
-74.32
-79.86
-87.21
-96.72
-107.92
-119.18
-127.85
-130.84
-125.55
-110.85
-87.64
-58.66
-27.63
1.91
27.45
47.89
63.30
74.28
81.44
85.23
85.94
84.00
80.07
75.02
69.75
64.99
61.11
58.15
55.88
54.11
52.71
51.71
51.15
50.97
50.89
50.32
48.60
45.17
39.82
32.81
24.85
16.88
9.71
3.79
-0.97
-5.16
-9.64
-15.13
-21.90
-29.63
-37.58
-44.85
-50.80
-55.34
-58.99
-62.78
-67.93
-75.47
-85.79
-98.30
-111.27
-121.98
-127.36
-124.84
-113.19
-93.10
-66.96
-38.14
-9.99
15.00
35.55
51.38
62.83
70.37
74.44
75.45
73.93
70.61
66.35
61.98
58.13
55.14
53.10
51.95
51.60
51.94
52.84
54.03
54.99
55.07
53.58
50.11
44.66
37.78
30.26
22.87
16.11
9.99
4.18
-1.84
-8.45
-15.72
-23.36
-30.91
-37.89
-44.11
-49.71
-55.24
-61.49
-69.32
-79.31
-91.30
-104.04
-115.21
-121.75
-120.79
-110.60
-91.38
-65.29
-35.79
-6.59
19.39
40.65
56.94
68.78
76.80
81.36
82.54
80.43
75.44
68.48
60.87
53.94
48.74
45.71
44.73
45.22
46.45
47.74
48.59
48.67
47.76
45.70
42.46
38.10
32.80
26.78
20.17
13.06
5.43
-2.70
-11.24
-20.03
-28.91
-37.80
-46.70
-55.75
-65.11
-74.94
-85.31
-96.02
-106.33
-114.87
-119.69
-118.69
-110.29
-94.15
-71.45
-44.70
-16.99
8.83
30.80
47.96
60.10
67.31
69.74
67.61
61.54
52.70
42.88
33.97
27.55
24.33
24.01
25.56
27.69
29.42
30.29
30.35
29.84
28.80
26.95
23.70
18.52
11.26
2.37
-7.19
-16.30
-24.12
-30.47
-35.82
-41.15
-47.56
-55.93
-66.54
-78.95
-91.83
-103.07
-110.04
-110.29
-102.22
-85.75
-62.42
-35.09
-7.03
18.91
40.93
58.29
71.01
79.28
83.22
82.85
78.48
70.92
61.61
52.36
44.84
40.06
38.08
38.15
39.04
39.63
39.30
38.02
36.16
34.05
31.71
28.72
24.39
18.16
9.88
0.00
-10.55
-20.71
-29.69
-37.21
-43.59
-49.59
-56.15
-64.15
-74.23
-86.57
-100.68
-115.20
-127.81
-135.62
-135.88
-126.87
-108.58
-82.87
-52.91
-22.21
6.32
30.89
50.92
66.54
78.18
86.18
90.74
92.07
90.58
86.95
82.10
77.04
72.61
69.36
67.46
66.72
66.78
67.19
67.45
67.08
65.57
62.52
57.74
51.36
43.82
35.72
27.57
19.60
11.71
3.60
-4.93
-13.86
-22.87
-31.50
-39.36
-46.43
-53.06
-59.99
-68.15
-78.33
-90.86
-105.18
-119.64
-131.65
-138.05
-136.10
-124.27
-102.96
-74.48
-42.39
-10.47
18.22
42.04
60.65
74.59
84.61
91.29
94.93
95.69
93.86
90.04
85.05
79.80
75.03
71.19
68.40
66.56
65.50
65.08
65.13
65.41
65.48
64.67
62.24
57.58
50.51
41.44
31.27
21.16
12.10
4.50
-1.95
-8.12
-15.01
-23.30
-32.90
-42.95
-52.17
-59.37
-64.01
-66.47
-67.92
-70.06
-74.51
-82.33
-93.56
-106.96
-120.00
-129.34
-131.63
-124.59
-107.82
-83.02
-53.47
-22.98
5.26
29.35
48.83
64.16
76.01
84.79
90.54
93.09
92.53
89.33
84.39
78.85
73.69
69.53
66.49
64.31
62.61
61.09
59.69
58.44
57.35
56.15
54.31
51.21
46.34
39.60
31.35
22.36
13.55
5.66
-0.96
-6.51
-11.56
-16.86
-22.99
-30.13
-37.95
-45.76
-52.77
-58.47
-62.81
-66.31
-69.94
-74.85
-82.03
-91.94
-104.15
-117.13
-128.35
-134.77
-133.65
-123.39
-104.13
-77.74
-47.30
-16.19
12.75
37.72
58.01
73.67
85.06
92.51
96.28
96.62
93.97
89.09
82.96
76.69
71.17
66.96
64.14
62.43
61.37
60.56
59.74
58.74
57.41
55.56
52.88
49.09
44.06
37.86
30.77
23.30
15.96
9.25
3.48
-1.29
-5.29
-8.97
-12.89
-17.54
-23.15
-29.57
-36.35
-42.95
-48.88
-54.03
-58.63
-63.25
-68.62
-75.43
-84.13
-94.64
-106.12
-116.89
-124.52
-126.34
-120.37
-105.86
-83.80
-56.68
-27.72
0.03
24.41
44.41
59.96
71.37
78.93
82.78
83.05
80.17
75.01
68.81
62.91
58.30
55.50
54.37
54.42
54.98
55.51
55.67
55.29
54.23
52.39
49.59
45.70
40.69
34.64
27.83
20.59
13.33
6.43
0.21
-5.17
-9.73
-13.74
-17.62
-21.83
-26.70
-32.29
-38.40
-44.60
-50.38
-55.41
-59.59
-63.12
-66.51
-70.45
-75.74
-82.95
-92.19
-102.72
-112.78
-119.82
-121.14
-114.69
-99.92
-77.99
-51.51
-23.72
2.43
24.94
42.99
56.67
66.51
73.05
76.74
77.91
76.93
74.29
70.59
66.46
62.43
58.87
55.97
53.88
52.62
52.20
52.54
53.36
54.24
54.61
53.98
51.98
48.57
43.96
38.55
32.82
27.12
21.61
16.24
10.75
4.94
-1.29
-7.73
-13.99
-19.66
-24.51
-28.67
-32.55
-36.66
-41.31
-46.43
-51.58
-56.20
-59.89
-62.62
-64.83
-67.35
-71.19
-77.18
-85.67
-96.08
-106.79
-115.25
-118.57
-114.38
-101.63
-81.04
-54.94
-26.56
0.89
24.96
44.27
58.56
68.22
73.93
76.41
76.25
73.97
70.03
64.93
59.25
53.62
48.65
44.82
42.37
41.25
41.21
41.86
42.71
43.33
43.33
42.45
40.54
37.64
33.88
29.45
24.51
19.24
13.76
8.26
2.94
-1.99
-6.38
-10.21
-13.66
-17.03
-20.71
-24.96
-29.84
-35.12
-40.37
-45.16
-49.18
-52.45
-55.32
-58.39
-62.41
-68.04
-75.61
-84.82
-94.50
-102.62
-106.67
-104.29
-94.13
-76.37
-52.81
-26.29
0.07
23.74
43.19
57.92
68.11
74.21
76.66
75.85
72.18
66.27
59.00
51.46
44.75
39.73
36.82
35.89
36.41
37.70
39.14
40.36
41.22
41.63
41.47
40.49
38.47
35.31
31.09
26.04
20.48
14.70
8.93
3.44
-1.44
-5.41
-8.29
-10.19
-11.59
-13.21
-15.78
-19.77
-25.19
-31.60
-38.28
-44.48
-49.78
-54.15
-58.07
-62.39
-68.04
-75.80
-85.84
-97.39
-108.57
-116.72
-118.95
-113.12
-98.58
-76.46
-49.39
-20.67
6.61
30.27
49.25
63.41
73.13
78.97
81.43
80.98
78.11
73.41
67.60
61.41
55.56
50.62
46.91
44.50
43.29
43.00
43.30
43.80
44.12
43.88
42.72
40.33
36.52
31.20
24.52
16.87
8.83
1.08
-5.86
-11.72
-16.65
-21.11
-25.77
-31.16
-37.57
-44.87
-52.54
-59.88
-66.30
-71.52
-75.75
-79.73
-84.46
-90.93
-99.77
-110.85
-123.07
-134.28
-141.70
-142.50
-134.69
-117.84
-93.30
-63.82
-32.73
-3.04
23.18
44.90
61.93
74.41
82.58
86.69
87.11
84.49
79.73
73.86
67.87
62.48
58.05
54.69
52.36
50.97
50.41
50.63
51.45
52.54
53.28
52.94
50.77
46.26
39.39
30.65
20.99
11.50
3.10
-3.71
-9.05
-13.52
-17.98
-23.13
-29.25
-36.02
-42.64
-48.15
-51.90
-53.81
-54.60
-55.65
-58.64
-65.02
-75.46
-89.38
-104.84
-118.71
-127.43
-127.91
-118.52
-99.57
-73.26
-42.94
-12.10
16.49
41.13
61.14
76.43
87.13
93.31
95.20
93.27
88.39
81.74
74.61
68.10
62.91
59.38
57.55
57.30
58.44
60.66
63.47
66.07
67.50
66.83
63.52
57.54
49.50
40.38
31.21
22.77
15.36
8.76
2.40
-4.37
-12.00
-20.56
-29.62
-38.54
-46.62
-53.51
-59.34
-64.73
-70.63
-78.02
-87.54
-99.04
-111.30
-121.96
-127.99
-126.55
-115.93
-96.28
-69.63
-39.26
-8.73
19.02
42.28
60.41
73.56
82.20
86.87
88.08
86.38
82.44
77.02
70.99
65.17
60.21
56.53
54.20
53.00
52.52
52.29
51.92
51.04
49.35
46.58
42.55
37.29
31.03
24.16
17.11
10.14
3.32
-3.44
-10.32
-17.31
-24.33
-31.11
-37.42
-43.19
-48.61
-54.17
-60.55
-68.41
-78.11
-89.29
-100.54
-109.57
-113.56
-110.02
-97.69
-77.09
-50.48
-21.21
7.29
32.37
52.63
67.78
78.19
84.36
86.66
85.32
80.73
73.69
65.38
57.25
50.67
46.47
44.82
45.19
46.63
48.11
48.87
48.58
47.22
44.98
42.02
38.36
33.92
28.55
22.14
14.74
6.56
-2.04
-10.62
-18.75
-26.14
-32.69
-38.57
-44.12
-49.85
-56.30
-63.94
-72.95
-82.92
-92.68
-100.33
-103.56
-100.33
-89.63
-71.89
-49.02
-23.79
0.84
22.57
40.06
52.86
61.01
64.73
64.27
60.03
52.79
43.82
34.79
27.35
22.65
21.09
22.20
24.99
28.31
31.27
33.33
34.30
34.17
32.92
30.45
26.53
20.98
13.76
5.14
-4.25
-13.61
-22.17
-29.49
-35.61
-41.01
-46.46
-52.68
-60.20
-69.20
-79.42
-90.00
-99.37
-105.35
-105.66
-98.49
-83.32
-61.28
-34.93
-7.50
18.03
39.67
56.53
68.65
76.38
80.07
80.00
76.54
70.40
62.71
54.84
48.02
43.11
40.36
39.54
40.10
41.35
42.65
43.42
43.18
41.58
38.43
33.83
28.11
21.71
15.07
8.40
1.68
-5.30
-12.68
-20.49
-28.46
-36.20
-43.29
-49.51
-55.00
-60.26
-66.13
-73.57
-83.35
-95.65
-109.70
-123.49
-134.09
-138.23
-133.36
-118.56
-94.99
-65.58
-34.16
-4.25
21.78
43.04
59.73
72.54
82.07
88.51
91.83
92.07
89.61
85.20
79.85
74.54
69.94
66.33
63.72
61.92
60.77
60.18
60.07
60.30
60.52
60.23
58.84
55.83
50.98
44.41
36.66
28.53
20.77
13.91
8.00
2.68
-2.71
-8.87
-16.25
-24.83
-34.15
-43.44
-51.95
-59.17
-65.10
-70.22
-75.38
-81.60
-89.71
-100.14
-112.57
-125.67
-137.15
-144.08
-143.52
-133.57
-114.05
-86.70
-54.76
-22.00
8.39
34.41
55.47
71.88
84.29
93.17
98.76
101.17
100.64
97.74
93.24
88.02
82.81
78.11
74.15
71.04
68.85
67.59
67.24
67.58
68.17
68.33
67.35
64.75
60.47
54.88
48.70
42.68
37.21
32.31
27.55
22.40
16.55
10.05
3.30
-3.25
-9.33
-15.06
-20.84
-27.14
-34.19
-41.88
-49.75
-57.24
-63.88
-69.58
-74.54
-79.33
-84.75
-91.65
-100.69
-111.93
-124.43
-136.08
-143.80
-144.38
-135.55
-116.89
-90.06
-58.32
-25.54
4.95
31.07
52.07
68.15
79.84
87.62
91.84
92.78
90.90
86.93
81.75
76.23
71.06
66.65
63.21
60.88
59.72
59.81
60.98
62.84
64.69
65.67
65.05
62.49
58.09
52.35
45.95
39.48
33.25
27.30
21.48
15.62
9.70
3.81
-1.84
-7.12
-12.04
-16.80
-21.68
-26.90
-32.52
-38.40
-44.27
-49.79
-54.77
-59.19
-63.30
-67.55
-72.59
-79.08
-87.41
-97.31
-107.55
-115.87
-119.50
-115.88
-103.61
-83.10
-56.54
-27.30
1.11
25.95
45.74
60.26
69.99
75.59
77.49
75.98
71.40
64.47
56.36
48.50
42.20
38.27
36.82
37.40
39.23
41.56
43.77
45.49
46.44
46.37
45.12
42.60
38.88
34.16
28.74
22.93
17.00
11.19
5.71
0.72
-3.71
-7.63
-11.33
-15.15
-19.49
-24.54
-30.24
-36.27
-42.14
-47.41
-51.81
-55.43
-58.66
-62.13
-66.60
-72.72
-80.81
-90.60
-100.87
-109.52
-113.88
-111.43
-100.69
-81.84
-56.82
-28.82
-1.23
23.16
42.81
57.34
67.17
72.90
75.11
74.25
70.85
65.65
59.61
53.72
48.81
45.37
43.57
43.21
44.02
45.63
47.66
49.69
51.26
51.87
51.12
48.75
44.82
39.68
33.86
27.97
22.40
17.31
12.57
7.90
3.04
-2.07
-7.25
-12.26
-16.91
-21.23
-25.50
-30.09
-35.29
-41.04
-46.96
-52.53
-57.32
-61.25
-64.63
-68.14
-72.64
-78.95
-87.65
-98.71
-111.19
-123.08
-131.49
-133.37
-126.35
-109.77
-84.96
-54.96
-23.62
5.58
30.32
49.73
64.05
74.12
80.75
84.52
85.79
84.82
82.03
77.98
73.34
68.75
64.66
61.31
58.77
57.01
55.97
55.57
55.55
55.57
55.13
53.76
51.18
47.37
42.62
37.34
31.89
26.49
21.19
15.93
10.67
5.43
0.29
-4.71
-9.66
-14.78
-20.41
-26.81
-34.02
-41.77
-49.51
-56.62
-62.63
-67.41
-71.23
-74.77
-78.93
-84.61
-92.52
-102.68
-114.06
-124.46
-130.81
-129.99
-119.93
-100.46
-73.56
-42.67
-11.70
16.20
39.19
56.84
69.60
78.22
83.34
85.44
84.90
82.23
78.04
73.03
67.84
62.98
58.79
55.49
53.23
52.10
52.08
53.03
54.51
55.90
56.53
55.79
53.38
49.37
44.21
38.44
32.61
27.03
21.70
16.43
10.97
5.23
-0.66
-6.44
-11.88
-16.97
-21.97
-27.30
-33.30
-40.04
-47.23
-54.37
-60.90
-66.53
-71.37
-75.87
-80.76
-86.88
-94.79
-104.52
-115.17
-124.78
-130.66
-130.00
-120.86
-102.93
-77.80
-48.52
-18.71
8.57
31.42
49.29
62.52
71.77
77.57
80.18
79.77
76.73
71.82
66.07
60.61
56.30
53.53
52.23
51.94
52.16
52.49
52.75
52.92
52.94
52.58
51.37
48.80
44.48
38.38
30.98
23.07
15.58
9.18
4.06
-0.16
-4.25
-9.10
-15.29
-22.85
-31.20
-39.41
-46.55
-52.10
-56.18
-59.56
-63.34
-68.65
-76.29
-86.41
-98.37
-110.59
-120.74
-126.09
-124.16
-113.49
-94.25
-68.34
-38.92
-9.49
16.98
38.73
55.26
67.05
74.89
79.46
81.15
80.13
76.72
71.51
65.47
59.73
55.26
52.55
51.48
51.51
52.01
52.55
53.04
53.55
54.15
54.52
54.10
52.22
48.41
42.66
35.48
27.77
20.51
14.37
9.42
5.18
0.71
-4.88
-12.17
-21.06
-30.89
-40.66
-49.45
-56.77
-62.72
-67.88
-73.15
-79.47
-87.62
-97.90
-109.88
-122.10
-132.11
-136.93
-133.89
-121.58
-100.49
-73.01
-42.64
-12.96
13.30
34.79
51.40
63.77
72.65
78.65
82.01
82.87
81.39
78.01
73.47
68.74
64.80
62.31
61.46
61.94
63.13
64.44
65.42
65.89
65.73
64.75
62.60
58.93
53.49
46.38
38.11
29.48
21.35
14.31
8.51
3.61
-1.04
-6.24
-12.57
-20.18
-28.72
-37.51
-45.73
-52.84
-58.68
-63.59
-68.33
-73.81
-80.92
-90.15
-101.36
-113.43
-124.25
-130.99
-130.81
-121.82
-103.72
-78.18
-48.35
-17.87
10.13
33.71
52.21
65.86
75.23
80.78
82.82
81.64
77.76
72.07
65.71
59.80
55.20
52.36
51.20
51.30
52.10
53.14
54.19
55.19
56.11
56.82
56.87
55.69
52.72
47.76
41.12
33.59
26.18
19.67
14.39
9.96
5.60
0.43
-6.09
-13.95
-22.54
-30.93
-38.27
-44.08
-48.46
-52.01
-55.60
-60.20
-66.52
-74.91
-85.05
-95.80
-105.17
-110.62
-109.68
-100.77
-83.82
-60.46
-33.56
-6.35
18.42
39.11
55.08
66.39
73.30
75.96
74.57
69.59
61.97
53.18
44.89
38.49
34.74
33.60
34.37
36.08
37.93
39.50
40.72
41.64
42.14
41.80
39.98
36.21
30.49
23.40
15.97
9.24
3.86
-0.18
-3.55
-7.24
-12.04
-18.29
-25.64
-33.30
-40.36
-46.21
-50.81
-54.70
-58.88
-64.44
-72.23
-82.50
-94.63
-107.02
-117.22
-122.39
-120.04
-108.89
-89.32
-63.48
-34.54
-5.89
19.82
41.13
57.69
69.77
77.82
82.11
82.83
80.35
75.35
68.93
62.39
56.92
53.27
51.64
51.72
52.87
54.39
55.77
56.75
57.24
57.23
56.55
54.89
51.84
47.14
40.78
33.15
24.92
16.82
9.42
2.85
-3.13
-9.13
-15.76
-23.40
-32.03
-41.13
-50.00
-57.91
-64.41
-69.53
-73.67
-77.57
-82.16
-88.35
-96.83
-107.67
-120.03
-131.87
-140.29
-142.20
-135.28
-118.92
-94.45
-64.84
-33.67
-4.13
21.65
42.84
59.47
72.01
80.99
86.76
89.62
89.90
88.07
84.76
80.60
76.24
72.19
68.77
66.14
64.35
63.33
62.98
63.08
63.36
63.42
62.87
61.33
58.60
54.63
49.58
43.69
37.22
30.42
23.51
16.65
10.02
3.68
-2.43
-8.58
-15.11
-22.32
-30.25
-38.56
-46.66
-53.92
-59.95
-64.85
-69.22
-73.92
-79.90
-87.89
-98.15
-110.16
-122.41
-132.42
-137.21
-134.03
-121.44
-99.92
-71.86
-40.91
-10.76
15.85
37.63
54.60
67.42
76.80
83.18
86.76
87.70
86.42
83.57
79.90
76.08
72.54
69.51
66.96
64.90
63.34
62.34
61.88
61.86
61.93
61.61
60.38
57.87
54.03
49.05
43.36
37.36
31.29
25.17
18.89
12.35
5.66
-0.94
-7.16
-12.87
-18.23
-23.68
-29.69
-36.47
-43.83
-51.19
-57.89
-63.48
-67.99
-71.89
-75.98
-81.16
-88.18
-97.35
-108.29
-119.68
-129.20
-133.93
-131.11
-119.12
-98.19
-70.55
-39.76
-9.64
16.88
38.33
54.62
66.43
74.59
79.66
81.93
81.62
79.11
75.05
70.23
65.43
61.27
58.07
55.92
54.70
54.20
54.18
54.39
54.61
54.62
54.15
52.94
50.72
47.33
42.83
37.48
31.69
25.91
20.44
15.40
10.76
6.29
1.73
-3.20
-8.75
-15.02
-21.89
-29.06
-36.01
-42.27
-47.55
-51.93
-55.85
-59.98
-65.07
-71.74
-80.21
-90.08
-100.10
-108.30
-112.16
-109.45
-98.87
-80.67
-56.65
-29.68
-2.85
21.29
41.17
56.16
66.23
71.59
72.53
69.49
63.21
54.80
45.65
37.18
30.53
26.35
24.69
25.17
27.19
30.12
33.40
36.51
38.99
40.28
39.84
37.33
32.75
26.50
19.30
11.95
5.05
-1.21
-7.07
-12.92
-19.10
-25.58
-32.00
-37.83
-42.65
-46.49
-49.82
-53.51
-58.55
-65.70
-75.14
-86.14
-96.98
-105.13
-107.88
-103.13
-90.16
-69.94
-44.92
-18.23
7.24
29.43
47.42
61.08
70.67
76.47
78.69
77.58
73.67
67.77
60.88
54.06
48.09
43.47
40.33
38.55
37.92
38.09
38.72
39.38
39.52
38.59
36.09
31.81
25.89
18.88
11.50
4.45
-1.82
-7.36
-12.55
-17.99
-24.12
-31.03
-38.35
-45.47
-51.85
-57.28
-62.07
-66.96
-72.94
-80.88
-91.14
-103.20
-115.41
-125.22
-129.57
-125.92
-113.05
-91.65
-64.12
-33.89
-4.42
21.69
43.08
59.52
71.47
79.61
84.58
86.84
86.75
84.65
80.93
76.06
70.58
65.00
59.81
55.32
51.70
49.04
47.31
46.36
45.88
45.31
44.00
41.31
36.96
31.10
24.35
17.51
11.24
5.75
0.73
-4.43
-10.28
-17.02
-24.37
-31.71
-38.43
-44.28
-49.41
-54.42
-60.18
-67.58
-77.24
-89.20
-102.54
-115.22
-124.31
-126.67
-120.00
-103.78
-79.53
-50.46
-20.39
7.42
31.00
49.80
64.20
74.82
82.12
86.27
87.33
85.62
81.77
76.71
71.32
66.30
61.95
58.28
55.16
52.56
50.60
49.41
48.99
48.94
48.52
46.88
43.42
38.04
31.26
23.95
17.03
10.99
5.80
0.98
-4.15
-10.09
-16.92
-24.28
-31.59
-38.33
-44.30
-49.69
-55.13
-61.39
-69.30
-79.27
-91.02
-103.32
-113.91
-119.95
-118.76
-108.81
-90.21
-64.97
-36.30
-7.74
17.85
38.80
54.67
65.83
72.92
76.47
76.75
74.02
68.70
61.60
53.93
46.98
41.87
39.19
38.88
40.30
42.54
44.67
46.03
46.25
45.20
42.85
39.24
34.45
28.64
22.06
15.01
7.80
0.67
-6.22
-12.75
-18.81
-24.34
-29.32
-33.89
-38.39
-43.27
-49.11
-56.47
-65.57
-76.08
-86.81
-95.70
-100.20
-97.98
-87.72
-69.76
-46.11
-19.88
5.67
28.04
45.88
58.88
67.36
71.70
72.15
68.91
62.51
53.96
44.77
36.61
30.83
28.08
28.14
30.08
32.71
34.94
36.12
36.07
34.87
32.70
29.61
25.51
20.26
13.80
6.24
-2.07
-10.64
-18.94
-26.53
-33.23
-39.13
-44.60
-50.17
-56.39
-63.76
-72.57
-82.78
-93.81
-104.40
-112.50
-115.69
-111.78
-99.65
-79.80
-54.38
-26.59
0.28
23.80
42.82
57.23
67.48
73.90
76.58
75.49
70.88
63.64
55.26
47.43
41.54
38.27
37.38
38.02
39.10
39.70
39.34
37.91
35.51
32.25
28.22
23.41
17.84
11.60
4.82
-2.41
-9.94
-17.61
-25.16
-32.27
-38.66
-44.26
-49.30
-54.36
-60.22
-67.71
-77.39
-89.28
-102.56
-115.40
-125.12
-128.74
-123.89
-109.68
-87.19
-59.17
-29.23
-0.67
24.31
44.92
61.34
74.08
83.48
89.51
92.07
91.27
87.67
82.27
76.12
70.16
64.98
60.77
57.52
55.17
53.69
53.13
53.37
54.00
54.27
53.23
50.07
44.45
36.71
27.78
18.82
10.76
3.94
-1.98
-7.87
-14.63
-22.77
-32.15
-42.08
-51.59
-59.93
-66.83
-72.65
-78.24
-84.75
-93.19
-104.12
-117.20
-130.90
-142.57
-148.94
-147.01
-135.08
-113.49
-84.58
-51.97
-19.46
10.10
35.20
55.65
71.94
84.75
94.49
101.30
105.21
106.30
104.87
101.47
96.80
91.62
86.56
82.11
78.55
75.96
74.30
73.41
72.97
72.54
71.55
69.43
65.81
60.69
54.41
47.56
40.77
34.43
28.56
22.90
17.06
10.72
3.87
-3.23
-10.23
-16.93
-23.40
-30.05
-37.35
-45.52
-54.35
-63.19
-71.26
-77.86
-82.90
-86.93
-91.02
-96.60
-104.88
-116.38
-130.42
-144.91
-156.52
-161.54
-156.96
-141.56
-116.41
-84.58
-50.10
-16.74
12.91
37.78
57.94
74.03
86.70
96.26
102.83
106.46
107.32
105.75
102.23
97.34
91.68
85.86
80.39
75.74
72.24
70.02
68.96
68.66
68.51
67.80
65.98
62.75
58.17
52.52
46.17
39.43
32.51
25.55
18.68
12.01
5.69
-0.32
-6.18
-12.20
-18.69
-25.87
-33.66
-41.78
-49.74
-57.07
-63.52
-69.16
-74.41
-79.98
-86.68
-95.29
-106.15
-118.79
-131.69
-142.19
-147.10
-143.57
-130.16
-107.46
-77.98
-45.44
-13.54
15.05
39.08
58.58
74.13
86.28
95.24
100.89
103.09
102.00
98.23
92.70
86.47
80.44
75.24
71.13
68.12
66.06
64.74
63.88
63.20
62.33
60.88
58.49
54.89
49.98
43.86
36.85
29.44
22.18
15.52
9.70
4.64
-0.05
-4.91
-10.47
-17.03
-24.53
-32.58
-40.56
-47.85
-54.07
-59.22
-63.71
-68.24
-73.69
-80.86
-90.26
-101.81
-114.63
-126.82
-135.72
-138.39
-132.53
-117.28
-93.57
-64.04
-32.22
-1.57
25.39
47.38
64.23
76.37
84.31
88.43
88.98
86.35
81.27
74.85
68.33
62.78
58.72
56.11
54.51
53.45
52.66
52.10
51.81
51.60
50.94
49.10
45.42
39.75
32.48
24.47
16.68
9.85
4.18
-0.65
-5.30
-10.42
-16.39
-23.17
-30.29
-37.07
-42.95
-47.69
-51.54
-55.26
-59.83
-66.28
-75.22
-86.55
-99.07
-110.53
-117.96
-118.54
-110.41
-93.43
-69.29
-41.00
-11.92
15.10
38.29
56.88
70.83
80.32
85.49
86.48
83.61
77.61
69.66
61.22
53.73
48.20
45.06
44.05
44.53
45.76
47.14
48.31
49.11
49.35
48.79
47.12
44.05
39.49
33.51
26.37
18.45
10.20
2.08
-5.53
-12.43
-18.70
-24.67
-30.75
-37.30
-44.29
-51.35
-57.89
-63.35
-67.56
-70.75
-73.60
-77.02
-81.94
-89.12
-98.95
-111.01
-123.78
-134.61
-140.13
-137.23
-124.10
-101.12
-70.88
-37.36
-4.68
24.08
47.45
65.38
78.52
87.60
92.96
94.72
93.08
88.64
82.42
75.66
69.53
64.79
61.75
60.24
59.87
60.15
60.65
61.05
61.10
60.66
59.53
57.54
54.43
50.02
44.20
37.14
29.22
21.06
13.24
6.16
-0.08
-5.70
-11.09
-16.70
-22.86
-29.72
-37.14
-44.77
-52.11
-58.72
-64.39
-69.26
-73.87
-79.03
-85.63
-94.35
-105.34
-117.88
-130.11
-139.22
-141.99
-135.81
-119.61
-94.46
-63.28
-29.97
1.79
29.47
51.97
69.24
81.73
89.86
93.90
94.15
91.16
85.80
79.19
72.42
66.34
61.43
57.80
55.27
53.58
52.48
51.83
51.59
51.65
51.75
51.36
49.82
46.54
41.23
34.18
26.16
18.20
11.15
5.34
0.47
-4.25
-9.73
-16.52
-24.58
-33.30
-41.70
-48.91
-54.50
-58.59
-61.86
-65.34
-70.12
-77.02
-86.26
-97.09
-107.70
-115.42
-117.35
-111.22
-96.27
-73.53
-45.59
-15.86
12.44
36.99
56.57
70.84
79.94
84.14
83.83
79.59
72.35
63.39
54.10
45.76
39.29
35.13
33.23
33.27
34.67
36.80
39.01
40.63
41.09
39.94
36.96
32.27
26.29
19.60
12.76
6.10
-0.33
-6.71
-13.23
-19.93
-26.70
-33.32
-39.58
-45.44
-51.04
-56.70
-62.84
-70.05
-78.77
-89.13
-100.46
-111.06
-118.33
-119.33
-111.80
-95.04
-70.33
-40.59
-9.49
19.60
44.41
63.89
77.97
86.94
91.10
90.69
86.04
77.91
67.54
56.55
46.56
38.78
33.81
31.53
31.29
32.20
33.39
34.11
33.89
32.44
29.68
25.61
20.37
14.17
7.23
-0.20
-7.93
-15.85
-23.86
-31.90
-39.87
-47.61
-54.91
-61.59
-67.63
-73.28
-79.17
-86.20
-95.32
-107.01
-120.73
-134.53
-145.25
-149.22
-143.39
-126.52
-99.75
-66.30
-30.53
3.46
32.83
56.35
74.14
86.94
95.49
100.32
101.77
100.36
96.78
91.95
86.75
81.81
77.42
73.53
70.01
66.87
64.31
62.55
61.66
61.30
60.64
58.66
54.47
47.78
39.05
29.33
19.87
11.53
4.50
-1.78
-8.25
-15.80
-24.80
-34.97
-45.53
-55.52
-64.29
-71.70
-78.30
-85.11
-93.35
-104.04
-117.50
-132.88
-147.90
-159.18
-162.95
-156.25
-138.04
-109.69
-74.66
-37.36
-1.88
29.09
54.54
74.72
90.39
102.20
110.45
115.24
116.73
115.35
111.83
107.05
101.80
96.69
92.02
87.90
84.35
81.41
79.19
77.78
77.07
76.60
75.55
72.87
67.72
59.71
49.23
37.34
25.41
14.71
5.88
-1.15
-7.18
-13.27
-20.33
-28.73
-38.18
-47.83
-56.70
-64.12
-70.00
-74.95
-80.04
-86.58
-95.67
-107.93
-123.03
-139.48
-154.61
-164.88
-166.83
-158.02
-138.03
-108.63
-73.23
-35.83
0.17
32.56
60.47
83.79
102.57
116.72
125.98
130.23
129.81
125.58
118.83
110.93
103.07
96.04
90.15
85.46
81.88
79.33
77.73
76.81
76.09
74.73
71.80
66.57
58.83
49.08
38.42
28.04
18.81
10.89
3.69
-3.84
-12.65
-23.25
-35.42
-48.33
-60.93
-72.35
-82.22
-90.82
-98.87
-107.28
-116.77
-127.48
-138.64
-148.45
-154.35
-153.61
-144.13
-125.27
-98.17
-65.57
-31.06
1.94
30.86
54.47
72.52
85.33
93.30
96.71
95.75
90.85
82.89
73.23
63.51
55.23
49.38
46.11
44.90
44.78
44.82
44.46
43.59
42.33
40.75
38.65
35.49
30.66
23.77
14.95
4.83
-5.63
-15.45
-24.00
-31.18
-37.38
-43.43
-50.22
-58.64
-69.25
-82.09
-96.36
-110.26
-121.19
-126.25
-123.06
-110.60
-89.65
-62.56
-32.62
-3.06
23.75
46.57
65.02
79.14
88.96
94.34
95.22
91.92
85.38
77.06
68.60
61.35
56.00
52.49
50.18
48.31
46.32
44.05
41.63
39.22
36.73
33.63
29.22
22.83
14.24
3.82
-7.48
-18.51
-28.28
-36.37
-42.98
-48.94
-55.31
-63.21
-73.41
-86.11
-100.69
-115.42
-127.66
-134.21
-132.24
-120.16
-98.33
-69.04
-35.90
-2.70
27.46
52.79
72.66
87.12
96.44
100.85
100.62
96.31
88.94
79.91
70.67
62.28
55.27
49.57
44.82
40.79
37.53
35.35
34.49
34.76
35.37
35.04
32.44
26.81
18.20
7.53
-3.83
-14.56
-23.92
-31.88
-39.06
-46.46
-55.13
-65.80
-78.53
-92.42
-105.48
-114.81
-117.38
-110.92
-94.84
-70.55
-41.10
-10.19
18.87
43.92
63.98
78.90
88.79
93.77
94.00
89.87
82.27
72.55
62.24
52.71
44.83
38.86
34.64
31.80
29.98
28.95
28.51
28.30
27.70
25.85
21.93
15.50
6.74
-3.56
-14.17
-23.90
-31.99
-38.40
-43.81
-49.42
-56.57
-66.25
-78.63
-92.73
-106.28
-116.20
-119.27
-113.24
-97.58
-73.78
-44.87
-14.48
14.16
38.89
58.74
73.50
83.29
88.17
88.28
84.07
76.51
67.06
57.35
48.74
41.95
37.03
33.59
31.16
29.45
28.39
27.93
27.80
27.35
25.70
22.07
16.09
8.02
-1.34
-10.93
-19.81
-27.51
-34.06
-40.09
-46.53
-54.33
-64.14
-75.85
-88.37
-99.58
-106.74
-107.18
-99.14
-82.43
-58.63
-30.65
-1.87
24.75
47.21
64.52
76.47
83.09
84.54
81.17
73.77
63.67
52.61
42.30
34.01
28.22
24.68
22.69
21.51
20.66
19.95
19.34
18.70
17.62
15.47
11.57
5.57
-2.39
-11.56
-20.87
-29.30
-36.33
-42.04
-47.20
-52.92
-60.26
-69.87
-81.55
-94.03
-104.97
-111.43
-110.67
-101.01
-82.55
-57.21
-28.19
0.97
27.42
49.43
66.42
78.45
85.73
88.35
86.33
80.00
70.27
58.77
47.46
38.17
32.02
29.12
28.58
29.07
29.30
28.53
26.68
24.15
21.38
18.49
15.22
10.98
5.24
-2.28
-11.35
-21.34
-31.38
-40.60
-48.43
-54.72
-59.85
-64.58
-69.97
-77.07
-86.65
-98.82
-112.71
-126.26
-136.45
-139.93
-134.01
-117.64
-91.84
-59.54
-24.59
9.25
39.26
64.14
83.63
98.07
107.83
113.17
114.34
111.82
106.47
99.43
91.85
84.58
78.04
72.25
67.08
62.44
58.44
55.29
53.08
51.58
50.16
47.92
44.08
38.24
30.59
21.87
13.07
5.04
-1.87
-7.95
-13.97
-20.81
-28.99
-38.42
-48.44
-58.07
-66.45
-73.25
-78.76
-83.85
-89.81
-97.83
-108.64
-122.01
-136.40
-148.97
-156.10
-154.39
-141.79
-118.44
-86.73
-50.67
-14.58
18.03
45.23
66.57
82.67
94.40
102.39
106.96
108.24
106.50
102.34
96.66
90.50
84.72
79.79
75.82
72.68
70.13
68.04
66.34
64.96
63.72
62.27
60.12
56.81
51.98
45.56
37.72
28.98
19.98
11.41
3.74
-2.95
-9.02
-15.08
-21.78
-29.44
-37.92
-46.64
-54.87
-62.00
-67.84
-72.63
-76.95
-81.58
-87.37
-95.13
-105.39
-117.95
-131.48
-143.31
-149.97
-148.06
-135.49
-112.41
-81.27
-46.04
-11.05
20.28
46.11
66.09
80.82
91.17
97.79
101.03
101.10
98.37
93.52
87.49
81.27
75.69
71.15
67.72
65.25
63.58
62.60
62.23
62.29
62.40
62.05
60.73
58.07
54.01
48.69
42.40
35.47
28.24
20.93
13.72
6.75
0.12
-6.17
-12.21
-18.16
-24.26
-30.72
-37.58
-44.72
-51.81
-58.40
-64.14
-68.90
-72.98
-77.04
-82.05
-89.01
-98.58
-110.58
-123.64
-135.21
-141.95
-140.70
-129.48
-108.30
-79.22
-45.74
-11.77
19.42
45.82
66.65
81.99
92.22
97.68
98.65
95.53
89.06
80.40
70.99
62.27
55.35
50.73
48.30
47.52
47.74
48.42
49.33
50.34
51.32
51.88
51.42
49.26
44.98
38.59
30.71
22.38
14.71
8.45
3.75
0.05
-3.59
-8.14
-14.06
-21.20
-28.88
-36.26
-42.73
-48.12
-52.77
-57.22
-62.12
-68.06
-75.48
-84.59
-94.95
-105.30
-113.43
-116.62
-112.42
-99.61
-78.80
-52.30
-23.46
4.43
28.93
48.79
63.72
73.90
79.59
80.93
78.22
72.09
63.62
54.21
45.29
37.97
32.85
29.96
28.96
29.27
30.26
31.33
31.95
31.67
30.09
27.01
22.48
16.85
10.68
4.57
-1.14
-6.42
-11.61
-17.14
-23.28
-29.98
-36.88
-43.51
-49.53
-54.91
-59.97
-65.30
-71.68
-79.80
-90.04
-101.97
-114.08
-123.76
-127.82
-123.45
-109.27
-85.92
-56.01
-23.29
8.45
36.35
58.90
75.77
87.29
93.98
96.30
94.64
89.58
81.96
72.88
63.52
54.93
47.75
42.22
38.28
35.72
34.40
34.18
34.83
35.93
36.78
36.53
34.47
30.34
24.41
17.46
10.39
3.87
-1.97
-7.56
-13.60
-20.66
-28.85
-37.70
-46.38
-54.07
-60.34
-65.37
-69.93
-75.18
-82.32
-92.17
-104.75
-118.85
-131.97
-140.73
-141.71
-132.63
-113.23
-85.49
-53.01
-19.86
10.62
36.52
57.31
73.28
84.88
92.39
95.93
95.77
92.58
87.39
81.35
75.43
70.22
65.92
62.50
59.90
58.10
57.14
57.06
57.70
58.68
59.40
59.05
56.86
52.38
45.55
36.98
27.61
18.57
10.69
4.19
-1.33
-6.72
-12.87
-20.30
-28.96
-38.27
-47.40
-55.65
-62.75
-68.96
-75.08
-82.15
-91.28
-103.13
-117.56
-133.13
-147.11
-155.91
-156.06
-145.33
-123.70
-93.41
-58.31
-22.61
10.20
38.16
60.73
78.26
91.36
100.46
105.72
107.28
105.44
100.86
94.52
87.51
80.80
75.07
70.56
67.22
64.87
63.36
62.64
62.71
63.33
63.95
63.69
61.62
57.16
50.35
41.91
32.96
24.55
17.24
10.88
4.70
-2.25
-10.67
-20.63
-31.50
-42.25
-51.80
-59.49
-65.34
-70.07
-74.89
-81.16
-89.93
-101.55
-115.27
-129.07
-139.88
-144.29
-139.49
-124.33
-99.73
-68.57
-34.74
-1.95
27.14
51.27
70.30
84.60
94.55
100.35
102.14
100.35
95.75
89.46
82.62
76.17
70.66
66.20
62.66
59.84
57.65
56.13
55.37
55.25
55.34
54.86
52.94
48.99
42.95
35.37
27.25
19.54
12.82
7.00
1.43
-4.74
-12.10
-20.70
-29.97
-39.02
-47.02
-53.59
-58.98
-63.93
-69.53
-76.75
-86.25
-97.92
-110.66
-122.27
-129.79
-130.17
-121.24
-102.56
-75.69
-43.79
-10.68
20.20
46.57
67.41
82.62
92.46
97.21
97.13
92.66
84.65
74.39
63.48
53.49
45.58
40.34
37.67
37.00
37.49
38.33
38.87
38.65
37.49
35.31
32.15
28.07
23.20
17.67
11.58
5.06
-1.80
-8.91
-16.17
-23.38
-30.35
-36.93
-43.06
-48.87
-54.74
-61.22
-68.94
-78.35
-89.27
-100.59
-110.15
-115.07
-112.59
-101.07
-80.67
-53.43
-22.71
7.82
35.22
57.75
74.76
86.30
92.62
93.88
90.32
82.49
71.48
58.92
46.71
36.57
29.62
26.15
25.60
26.89
28.74
30.13
30.45
29.59
27.70
25.00
21.63
17.53
12.53
6.51
-0.49
-8.22
-16.21
-23.94
-31.01
-37.24
-42.74
-47.85
-53.03
-58.82
-65.78
-74.38
-84.89
-96.94
-109.26
-119.47
-124.57
-121.70
-109.26
-87.54
-58.82
-26.67
5.11
33.51
56.76
74.25
86.14
92.76
94.54
91.98
85.85
77.34
67.85
58.72
51.01
45.27
41.54
39.55
38.86
39.02
39.52
39.87
39.54
38.04
35.03
30.48
24.67
18.07
11.18
4.31
-2.49
-9.49
-16.98
-25.10
-33.74
-42.50
-50.88
-58.54
-65.46
-72.04
-79.03
-87.38
-97.89
-110.76
-125.07
-138.56
-147.90
-149.48
-140.67
-120.77
-91.53
-56.53
-20.17
13.71
42.70
65.94
83.67
96.47
104.85
109.08
109.36
106.21
100.49
93.38
86.03
79.37
73.80
69.32
65.69
62.67
60.24
58.46
57.38
56.80
56.13
54.48
51.03
45.26
37.34
28.05
18.51
9.77
2.38
-3.79
-9.52
-15.73
-23.18
-32.03
-41.77
-51.51
-60.28
-67.52
-73.25
-78.19
-83.54
-90.70
-100.84
-114.33
-130.28
-146.26
-158.61
-163.33
-157.33
-139.54
-111.39
-76.35
-38.90
-3.14
28.23
54.02
74.35
89.88
101.30
109.00
113.19
114.03
111.85
107.28
101.17
94.50
88.10
82.51
78.01
74.58
72.09
70.40
69.29
68.52
67.75
66.50
64.32
60.81
55.81
49.42
41.95
33.88
25.68
17.78
10.41
3.56
-2.98
-9.55
-16.55
-24.26
-32.71
-41.67
-50.68
-59.24
-66.93
-73.65
-79.61
-85.38
-91.83
-99.96
-110.59
-123.95
-139.15
-153.94
-164.90
-168.28
-161.19
-142.64
-114.06
-78.87
-41.40
-5.57
25.97
52.13
72.97
89.03
100.82
108.57
112.41
112.60
109.68
104.52
98.11
91.43
85.24
80.04
76.07
73.39
71.90
71.37
71.43
71.57
71.23
69.86
67.08
62.75
56.96
49.98
42.21
34.08
26.02
18.42
11.53
5.39
-0.16
-5.46
-10.99
-17.11
-23.99
-31.56
-39.46
-47.22
-54.37
-60.65
-66.08
-71.01
-76.07
-82.09
-89.88
-99.89
-111.77
-124.13
-134.43
-139.52
-136.50
-123.74
-101.56
-72.22
-39.26
-6.40
23.43
48.55
68.38
82.93
92.30
96.57
95.90
90.88
82.72
73.11
63.84
56.36
51.45
49.12
48.83
49.77
51.22
52.69
53.99
55.00
55.56
55.31
53.79
50.53
45.29
38.24
29.93
21.23
13.05
5.99
0.20
-4.79
-9.76
-15.56
-22.63
-30.89
-39.71
-48.25
-55.79
-62.04
-67.16
-71.73
-76.55
-82.45
-90.15
-99.95
-111.44
-123.15
-132.58
-136.71
-132.73
-119.15
-96.31
-66.43
-32.96
0.42
30.73
56.14
75.99
90.32
99.45
103.73
103.51
99.33
92.09
83.07
73.77
65.58
59.54
56.01
54.81
55.37
56.98
58.99
60.92
62.33
62.81
61.92
59.34
54.97
49.09
42.23
35.03
27.97
21.26
14.81
8.35
1.71
-5.11
-11.90
-18.39
-24.40
-30.00
-35.47
-41.25
-47.68
-54.86
-62.54
-70.21
-77.31
-83.47
-88.73
-93.65
-99.20
-106.54
-116.56
-129.38
-143.89
-157.55
-166.83
-168.04
-158.51
-137.59
-106.89
-69.93
-30.99
6.02
38.44
64.98
85.52
100.55
110.75
116.78
119.30
118.92
116.33
112.17
107.05
101.50
95.96
90.75
86.07
82.09
78.99
76.82
75.54
74.80
73.99
72.28
68.97
63.76
56.93
49.22
41.59
34.74
28.90
23.73
18.60
12.84
6.20
-1.17
-8.78
-16.10
-22.79
-28.90
-34.81
-41.01
-47.91
-55.55
-63.60
-71.43
-78.37
-84.02
-88.47
-92.36
-96.72
-102.79
-111.52
-123.15
-136.73
-149.97
-159.55
-161.86
-154.06
-135.16
-106.36
-70.86
-32.89
3.52
35.43
61.42
81.39
95.92
105.85
111.85
114.48
114.18
111.47
106.93
101.24
95.05
88.88
83.13
78.06
73.87
70.72
68.80
68.13
68.51
69.41
70.05
69.54
67.24
62.89
56.79
49.63
42.31
35.64
30.00
25.31
21.04
16.42
10.78
3.85
-4.09
-12.34
-20.00
-26.44
-31.59
-36.01
-40.65
-46.38
-53.58
-61.92
-70.50
-78.25
-84.44
-89.01
-92.58
-96.20
-101.11
-108.34
-118.43
-131.00
-144.53
-156.24
-162.54
-159.98
-146.36
-121.70
-88.29
-50.15
-11.76
23.13
52.22
74.73
90.97
101.69
107.72
109.74
108.45
104.55
98.80
92.00
84.87
78.02
71.93
66.93
63.24
61.00
60.22
60.74
62.14
63.76
64.79
64.45
62.22
58.06
52.44
46.05
39.62
33.62
28.08
22.69
17.04
10.84
4.07
-2.97
-9.88
-16.38
-22.37
-28.08
-33.80
-39.82
-46.16
-52.59
-58.70
-64.12
-68.72
-72.73
-76.77
-81.70
-88.34
-97.18
-108.00
-119.52
-129.43
-134.76
-132.65
-121.29
-100.62
-72.46
-40.00
-6.85
23.81
49.89
70.40
85.17
94.38
98.37
97.58
92.69
84.75
75.07
65.07
56.07
49.02
44.41
42.23
42.10
43.38
45.39
47.55
49.42
50.67
51.00
50.08
47.57
43.24
37.12
29.56
21.27
13.11
5.83
-0.25
-5.29
-9.91
-14.89
-20.88
-28.09
-36.19
-44.45
-52.04
-58.34
-63.19
-67.00
-70.58
-74.91
-80.85
-88.87
-98.71
-109.20
-118.22
-123.10
-121.23
-110.92
-91.99
-66.04
-35.95
-5.11
23.49
47.83
66.97
80.75
89.31
92.87
91.67
86.20
77.34
66.40
54.94
44.45
36.03
30.27
27.19
26.39
27.27
29.18
31.52
33.67
35.05
35.09
33.35
29.69
24.42
18.21
11.90
6.23
1.45
-2.73
-6.98
-12.02
-18.27
-25.66
-33.64
-41.42
-48.37
-54.27
-59.47
-64.78
-71.28
-79.94
-91.05
-103.84
-116.30
-125.41
-127.91
-121.40
-105.19
-80.57
-50.50
-18.58
11.89
38.67
60.66
77.58
89.49
96.48
98.55
95.95
89.39
80.11
69.76
59.99
52.06
46.57
43.42
42.05
41.74
41.96
42.45
43.10
43.78
44.12
43.51
41.28
37.00
30.71
22.99
14.73
6.88
-0.03
-5.98
-11.49
-17.36
-24.29
-32.57
-41.89
-51.52
-60.51
-68.08
-73.96
-78.48
-82.50
-87.22
-93.86
-103.24
-115.25
-128.55
-140.47
-147.55
-146.43
-134.97
-113.06
-82.76
-47.72
-12.10
20.56
48.01
69.41
85.03
95.63
102.10
105.11
105.18
102.75
98.33
92.59
86.29
80.19
74.91
70.74
67.66
65.47
63.95
63.01
62.60
62.66
62.85
62.56
60.95
57.32
51.33
43.25
33.88
24.27
15.32
7.53
0.87
-5.13
-11.11
-17.64
-25.01
-33.23
-41.95
-50.68
-58.92
-66.34
-72.92
-78.96
-85.12
-92.27
-101.36
-112.97
-126.86
-141.53
-154.14
-161.01
-158.69
-145.18
-120.77
-88.07
-51.23
-14.63
18.33
45.86
67.64
84.25
96.53
105.11
110.34
112.41
111.60
108.31
103.16
96.88
90.28
84.01
78.57
74.21
70.97
68.75
67.36
66.59
66.14
65.63
64.60
62.59
59.26
54.44
48.29
41.21
33.79
26.55
19.85
13.72
7.80
1.52
-5.70
-14.25
-24.08
-34.76
-45.60
-55.90
-65.16
-73.18
-80.09
-86.31
-92.48
-99.44
-108.06
-118.84
-131.43
-144.14
-154.05
-157.62
-151.79
-135.18
-108.67
-75.26
-39.07
-4.08
26.83
52.23
72.00
86.71
97.13
103.94
107.65
108.67
107.38
104.18
99.51
93.87
87.81
81.91
76.72
72.69
70.07
68.85
68.81
69.41
69.97
69.80
68.28
65.07
60.15
53.77
46.41
38.52
30.51
22.58
14.81
7.21
-0.15
-7.18
-13.76
-19.87
-25.70
-31.60
-37.92
-44.87
-52.35
-59.99
-67.23
-73.68
-79.24
-84.23
-89.32
-95.40
-103.32
-113.58
-125.87
-138.77
-149.73
-155.46
-152.85
-140.00
-117.01
-86.09
-50.88
-15.42
17.01
44.42
66.19
82.65
94.50
102.39
106.80
108.08
106.62
102.89
97.57
91.46
85.36
79.90
75.47
72.20
70.02
68.77
68.26
68.25
68.37
68.11
66.90
64.28
60.02
54.26
47.33
39.72
31.84
23.98
16.31
8.92
1.89
-4.75
-11.09
-17.31
-23.64
-30.32
-37.35
-44.57
-51.60
-58.04
-63.64
-68.49
-73.02
-77.95
-84.07
-92.05
-102.16
-113.91
-125.84
-135.56
-140.16
-137.01
-124.64
-103.31
-75.06
-43.16
-11.18
17.97
42.50
61.77
75.95
85.50
90.90
92.57
91.04
86.97
81.24
74.85
68.73
63.53
59.58
56.89
55.28
54.52
54.39
54.67
55.08
55.26
54.68
52.83
49.34
44.15
37.59
30.29
23.02
16.35
10.51
5.27
0.08
-5.62
-12.19
-19.60
-27.46
-35.17
-42.18
-48.19
-53.27
-57.86
-62.66
-68.50
-76.01
-85.37
-96.04
-106.52
-114.53
-117.47
-113.20
-100.69
-80.51
-54.72
-26.29
1.76
27.02
48.05
64.28
75.56
81.94
83.48
80.49
73.72
64.47
54.36
44.98
37.52
32.48
29.83
29.13
29.86
31.56
33.81
36.11
37.86
38.38
37.11
33.75
28.49
21.92
14.91
8.24
2.39
-2.71
-7.52
-12.69
-18.71
-25.56
-32.80
-39.73
-45.74
-50.67
-54.91
-59.29
-64.84
-72.38
-82.17
-93.61
-105.17
-114.48
-118.84
-115.92
-104.52
-85.03
-59.44
-30.76
-2.25
23.51
44.93
61.49
73.32
80.78
84.22
83.95
80.45
74.49
67.15
59.62
52.93
47.69
44.06
41.79
40.53
39.95
39.79
39.83
39.70
38.87
36.70
32.80
27.14
20.18
12.75
5.67
-0.50
-5.70
-10.33
-15.00
-20.26
-26.32
-32.98
-39.77
-46.16
-51.80
-56.74
-61.49
-66.89
-73.94
-83.38
-95.26
-108.59
-121.21
-130.06
-132.04
-124.93
-108.29
-83.64
-54.08
-23.28
5.60
30.55
50.85
66.65
78.37
86.35
90.72
91.58
89.28
84.56
78.47
72.14
66.49
62.07
59.02
57.18
56.27
56.05
56.30
56.87
57.48
57.64
56.77
54.27
49.74
43.15
34.93
25.80
16.67
8.33
1.23
-4.66
-9.80
-14.94
-20.80
-27.82
-36.02
-44.93
-53.83
-62.00
-68.98
-74.81
-80.01
-85.48
-92.24
-101.17
-112.59
-125.86
-139.20
-149.79
-154.37
-150.18
-135.88
-112.09
-81.30
-47.07
-13.05
17.89
44.12
65.12
81.14
92.72
100.44
104.80
106.27
105.31
102.43
98.19
93.22
88.14
83.47
79.57
76.63
74.65
73.49
72.92
72.57
72.02
70.78
68.41
64.66
59.46
53.00
45.54
37.37
28.76
19.92
11.12
2.63
-5.28
-12.49
-19.12
-25.52
-32.11
-39.26
-47.06
-55.23
-63.27
-70.60
-76.83
-81.91
-86.21
-90.47
-95.71
-102.96
-112.86
-125.20
-138.49
-149.97
-156.14
-153.77
-140.98
-118.02
-87.23
-52.35
-17.30
14.77
42.07
64.08
81.04
93.47
101.82
106.52
108.02
106.91
103.90
99.71
94.92
89.99
85.21
80.80
77.02
74.11
72.31
71.61
71.76
72.18
72.12
70.86
67.94
63.34
57.34
50.47
43.30
36.20
29.36
22.72
16.11
9.38
2.48
-4.42
-11.07
-17.20
-22.76
-27.98
-33.35
-39.39
-46.42
-54.33
-62.61
-70.53
-77.43
-83.05
-87.68
-92.11
-97.46
-104.80
-114.73
-126.81
-139.36
-149.42
-153.48
-148.43
-132.77
-107.17
-74.38
-38.44
-3.41
27.66
53.23
73.06
87.67
97.73
103.81
106.29
105.66
102.57
97.86
92.39
86.85
81.63
76.89
72.73
69.27
66.68
65.17
64.72
65.06
65.57
65.46
64.02
60.84
55.95
49.87
43.35
37.10
31.49
26.53
21.80
16.78
11.12
4.78
-1.89
-8.40
-14.34
-19.55
-24.27
-28.97
-34.18
-40.24
-47.14
-54.53
-61.86
-68.60
-74.49
-79.63
-84.62
-90.29
-97.60
-107.18
-118.90
-131.48
-142.38
-148.24
-145.86
-133.28
-110.55
-79.97
-45.26
-10.52
20.95
47.19
67.59
82.39
92.16
97.43
98.62
96.30
91.19
84.34
76.88
69.83
63.96
59.63
56.80
55.20
54.47
54.33
54.58
55.11
55.71
56.02
55.55
53.76
50.33
45.22
38.69
31.29
23.62
16.26
9.59
3.72
-1.50
-6.44
-11.59
-17.37
-23.94
-31.12
-38.40
-45.15
-50.89
-55.55
-59.49
-63.42
-68.22
-74.67
-83.27
-93.92
-105.73
-116.83
-124.61
-126.24
-119.56
-103.79
-79.97
-50.73
-19.55
10.26
36.23
57.12
72.63
83.01
88.63
89.85
87.09
81.04
72.75
63.52
54.67
47.22
41.61
37.81
35.48
34.25
33.92
34.38
35.49
36.84
37.72
37.26
34.78
30.07
23.50
16.02
8.68
2.29
-2.93
-7.32
-11.63
-16.61
-22.58
-29.40
-36.50
-43.25
-49.18
-54.23
-58.74
-63.37
-68.91
-76.13
-85.46
-96.60
-108.22
-117.90
-122.50
-119.18
-106.32
-84.37
-55.75
-24.14
6.66
33.79
55.73
72.18
83.43
89.83
91.67
89.22
83.09
74.34
64.42
54.78
46.53
40.22
35.86
33.18
31.88
31.77
32.71
34.38
36.22
37.36
36.90
34.23
29.30
22.60
15.02
7.40
0.31
-6.19
-12.47
-19.09
-26.48
-34.65
-43.27
-51.73
-59.42
-66.05
-71.77
-77.21
-83.34
-91.26
-101.74
-114.76
-129.09
-142.15
-150.53
-150.83
-140.82
-120.27
-91.15
-57.00
-21.88
10.71
38.58
60.87
77.72
89.71
97.47
101.49
102.19
100.08
95.82
90.19
83.95
77.72
71.97
66.97
62.95
60.10
58.49
58.01
58.26
58.53
57.93
55.65
51.26
44.83
36.95
28.41
19.94
11.95
4.40
-3.07
-10.95
-19.54
-28.74
-38.16
-47.13
-55.15
-62.06
-68.21
-74.49
-82.04
-91.99
-104.83
-119.94
-135.28
-147.57
-153.05
-148.62
-132.95
-107.08
-74.12
-38.24
-3.50
27.29
52.78
72.88
88.08
98.94
105.79
108.89
108.57
105.39
100.16
93.73
86.90
80.25
74.22
69.11
65.16
62.53
61.16
60.75
60.62
59.90
57.68
53.41
47.07
39.18
30.65
22.31
14.62
7.48
0.42
-7.16
-15.54
-24.60
-33.81
-42.54
-50.30
-57.02
-63.06
-69.20
-76.46
-85.83
-97.90
-112.28
-127.34
-140.15
-147.11
-144.97
-131.98
-108.60
-77.43
-42.41
-7.65
23.67
49.77
70.17
85.15
95.25
100.90
102.45
100.33
95.24
88.17
80.25
72.56
65.92
60.79
57.32
55.43
54.89
55.36
56.32
57.17
57.19
55.73
52.44
47.37
40.95
33.81
26.53
19.38
12.33
5.08
-2.65
-10.93
-19.53
-28.00
-35.87
-42.90
-49.24
-55.45
-62.36
-70.83
-81.45
-94.14
-107.84
-120.36
-128.72
-129.87
-121.69
-103.77
-77.68
-46.56
-14.18
16.14
42.23
63.11
78.71
89.25
94.92
95.84
92.32
85.13
75.60
65.38
56.07
48.89
44.37
42.44
42.50
43.76
45.41
46.73
47.21
46.51
44.41
40.87
35.96
29.84
22.79
15.11
7.17
-0.82
-8.62
-16.14
-23.33
-30.11
-36.41
-42.16
-47.47
-52.70
-58.53
-65.78
-75.12
-86.47
-98.69
-109.46
-115.75
-114.71
-104.60
-85.58
-59.66
-30.11
-0.45
26.47
48.93
66.27
78.41
85.43
87.32
84.22
76.60
65.66
53.20
41.33
31.89
26.00
23.78
24.44
26.73
29.36
31.42
32.47
32.45
31.42
29.36
26.19
21.78
16.07
9.18
1.42
-6.71
-14.71
-22.12
-28.74
-34.63
-40.11
-45.72
-52.12
-59.95
-69.72
-81.59
-94.96
-108.27
-118.98
-124.02
-120.70
-107.62
-85.38
-56.47
-24.52
6.72
34.44
57.10
74.34
86.41
93.65
96.35
94.82
89.60
81.65
72.23
62.75
54.37
47.86
43.52
41.24
40.63
41.10
41.96
42.46
41.93
39.86
36.11
30.81
24.35
17.13
9.46
1.44
-6.98
-15.95
-25.49
-35.42
-45.39
-54.92
-63.58
-71.19
-77.94
-84.38
-91.45
-100.14
-111.10
-124.09
-137.57
-148.69
-153.89
-149.93
-135.11
-109.91
-77.01
-40.39
-4.16
28.51
55.93
77.71
94.25
106.13
113.91
117.91
118.47
115.97
111.03
104.37
96.82
89.22
82.25
76.38
71.86
68.69
66.74
65.78
65.53
65.56
65.38
64.34
61.85
57.43
50.99
42.80
33.53
24.07
15.26
7.62
1.16
-4.65
-10.67
-17.69
-26.21
-36.09
-46.71
-57.14
-66.52
-74.43
-80.97
-86.80
-92.95
-100.61
-110.76
-123.81
-139.12
-154.71
-167.34
-173.20
-169.06
-153.35
-126.88
-92.63
-54.78
-17.52
16.12
44.60
67.70
86.00
100.20
110.83
118.17
122.37
123.58
122.08
118.38
113.14
107.09
100.88
95.05
89.94
85.78
82.71
80.80
79.92
79.67
79.35
78.10
75.11
69.95
62.75
54.15
45.10
36.59
29.25
23.29
18.32
13.69
8.69
2.84
-3.93
-11.27
-18.60
-25.29
-30.95
-35.63
-39.78
-44.13
-49.37
-55.80
-63.26
-71.06
-78.41
-84.69
-89.81
-94.19
-98.65
-104.18
-111.72
-121.89
-134.67
-148.94
-162.29
-171.21
-171.96
-161.79
-140.03
-108.54
-71.14
-32.42
3.59
34.36
59.00
77.84
91.73
101.51
107.81
111.04
111.59
109.88
106.43
101.83
96.65
91.40
86.46
82.10
78.53
75.89
74.28
73.60
73.55
73.62
73.17
71.64
68.76
64.56
59.39
53.72
47.99
42.51
37.44
32.77
28.36
24.00
19.38
14.25
8.47
2.07
-4.71
-11.45
-17.74
-23.29
-28.06
-32.29
-36.50
-41.28
-47.08
-54.00
-61.72
-69.58
-76.78
-82.76
-87.43
-91.29
-95.32
-100.69
-108.46
-119.14
-132.33
-146.31
-158.17
-164.31
-161.35
-147.35
-122.59
-89.62
-52.51
-15.61
17.59
45.16
66.65
82.55
93.65
100.65
104.09
104.44
102.28
98.32
93.29
87.79
82.30
77.15
72.61
68.93
66.32
64.97
64.84
65.66
66.82
67.49
66.83
64.25
59.70
53.64
46.86
40.20
34.19
28.83
23.74
18.38
12.35
5.67
-1.31
-8.03
-14.06
-19.29
-24.03
-28.80
-34.15
-40.33
-47.21
-54.29
-60.92
-66.57
-71.01
-74.41
-77.32
-80.58
-85.14
-91.82
-100.82
-111.31
-121.23
-127.58
-127.24
-117.98
-99.43
-73.27
-42.74
-11.63
16.87
40.84
59.62
73.43
82.75
87.89
88.98
86.22
80.12
71.71
62.35
53.51
46.34
41.49
38.97
38.34
39.00
40.34
41.92
43.41
44.53
44.98
44.44
42.68
39.61
35.33
30.05
24.11
17.91
11.86
6.33
1.52
-2.68
-6.65
-11.04
-16.44
-23.15
-31.04
-39.54
-47.91
-55.53
-62.08
-67.69
-72.78
-78.06
-84.31
-92.22
-102.02
-113.15
-123.91
-131.60
-133.11
-125.95
-109.15
-83.78
-52.74
-19.82
11.38
38.35
59.94
76.07
87.17
93.65
95.71
93.52
87.53
78.69
68.44
58.42
50.05
44.16
40.83
39.54
39.54
40.14
41.00
42.05
43.27
44.46
45.10
44.47
41.93
37.13
30.34
22.25
13.86
6.07
-0.55
-6.00
-10.75
-15.60
-21.32
-28.44
-36.93
-46.31
-55.72
-64.27
-71.36
-76.91
-81.33
-85.47
-90.37
-97.03
-106.14
-117.72
-130.72
-142.89
-150.97
-151.51
-141.96
-121.68
-92.30
-57.30
-20.88
13.18
42.42
65.79
83.37
95.69
103.35
106.84
106.67
103.46
98.00
91.20
83.99
77.21
71.51
67.30
64.72
63.60
63.55
64.09
64.68
64.82
64.09
62.18
58.94
54.35
48.51
41.63
33.98
25.84
17.54
9.35
1.58
-5.53
-11.93
-17.70
-23.18
-28.78
-34.92
-41.83
-49.44
-57.44
-65.33
-72.66
-79.21
-85.16
-91.08
-97.94
-106.84
-118.58
-133.07
-148.82
-162.84
-171.19
-170.08
-157.21
-132.70
-99.16
-60.79
-22.13
13.26
43.34
67.57
86.28
100.08
109.52
115.03
117.03
116.12
112.97
108.24
102.53
96.36
90.23
84.67
80.20
77.20
75.74
75.59
76.16
76.69
76.42
74.73
71.34
66.28
59.77
52.16
43.80
35.01
26.08
17.32
9.07
1.60
-4.91
-10.64
-16.00
-21.66
-28.24
-35.99
-44.74
-53.91
-62.77
-70.78
-77.78
-84.09
-90.37
-97.49
-106.39
-117.75
-131.59
-146.77
-160.78
-169.95
-170.44
-159.47
-136.45
-103.38
-64.30
-23.97
13.46
45.39
70.87
90.09
103.72
112.43
116.75
117.20
114.44
109.34
102.83
95.78
88.92
82.82
77.87
74.35
72.37
71.82
72.36
73.37
74.15
74.01
72.45
69.29
64.61
58.74
52.07
44.95
37.63
30.30
23.02
15.87
8.91
2.16
-4.43
-10.99
-17.77
-25.03
-32.95
-41.50
-50.41
-59.21
-67.37
-74.52
-80.64
-86.18
-91.97
-99.11
-108.63
-120.96
-135.45
-150.01
-161.24
-165.24
-158.71
-140.24
-110.92
-74.11
-34.39
3.79
37.26
64.50
85.34
100.30
110.00
114.93
115.54
112.47
106.71
99.42
91.74
84.58
78.47
73.67
70.27
68.33
67.88
68.79
70.69
72.84
74.35
74.38
72.42
68.44
62.84
56.22
49.11
41.84
34.46
26.93
19.24
11.54
4.07
-2.88
-9.19
-15.01
-20.68
-26.65
-33.24
-40.54
-48.33
-56.15
-63.50
-70.05
-75.78
-81.06
-86.62
-93.38
-102.29
-113.84
-127.59
-141.81
-153.45
-158.77
-154.46
-138.82
-112.51
-78.45
-40.94
-4.31
28.22
55.04
75.87
91.17
101.46
107.04
108.14
105.24
99.22
91.38
83.15
75.77
69.98
65.95
63.40
61.89
61.00
60.54
60.48
60.74
61.06
60.87
59.39
55.93
50.15
42.29
33.17
23.93
15.65
8.94
3.73
-0.69
-5.33
-11.08
-18.23
-26.49
-34.99
-42.79
-49.26
-54.30
-58.33
-62.16
-66.63
-72.52
-80.34
-90.21
-101.53
-112.77
-121.43
-124.51
-119.36
-104.64
-80.97
-50.90
-18.13
13.60
41.42
63.75
80.16
90.79
95.97
96.06
91.59
83.48
73.06
61.94
51.69
43.44
37.80
34.79
34.01
34.85
36.66
38.79
40.65
41.67
41.35
39.28
35.33
29.67
22.82
15.45
8.22
1.47
-4.83
-11.07
-17.71
-24.99
-32.80
-40.65
-47.95
-54.30
-59.73
-64.74
-70.26
-77.30
-86.54
-97.91
-110.20
-121.03
-127.32
-126.09
-115.55
-95.75
-68.70
-37.78
-6.73
21.43
44.86
62.93
75.70
83.44
86.34
84.51
78.34
68.74
57.24
45.70
35.96
29.24
25.91
25.47
26.82
28.77
30.30
30.93
30.51
29.07
26.67
23.27
18.76
13.03
6.08
-1.89
-10.54
-19.42
-28.05
-36.03
-43.16
-49.53
-55.43
-61.38
-68.03
-76.05
-85.99
-97.98
-111.30
-124.17
-133.76
-136.90
-131.00
-115.10
-90.31
-59.61
-26.82
4.52
31.98
54.49
72.01
84.90
93.48
97.91
98.32
95.10
89.06
81.34
73.25
65.95
60.21
56.35
54.21
53.37
53.22
53.14
52.51
50.83
47.73
43.10
37.09
30.07
22.50
14.64
6.56
-1.94
-11.07
-20.82
-30.87
-40.62
-49.49
-57.16
-63.87
-70.34
-77.59
-86.69
-98.32
-112.39
-127.68
-141.77
-151.40
-153.24
-144.94
-126.02
-98.12
-64.54
-29.23
4.32
33.82
58.29
77.71
92.50
103.11
109.92
113.29
113.67
111.62
107.74
102.64
96.85
90.81
84.89
79.39
74.60
70.80
68.14
66.58
65.70
64.79
62.92
59.28
53.47
45.70
36.68
27.40
18.64
10.70
3.26
-4.39
-12.96
-22.80
-33.66
-44.83
-55.37
-64.58
-72.22
-78.67
-84.81
-91.85
-101.01
-113.06
-127.78
-143.54
-157.29
-165.18
-163.56
-150.38
-125.95
-92.93
-55.54
-18.25
15.50
43.85
66.51
84.19
97.83
108.15
115.40
119.60
120.70
118.88
114.68
108.93
102.59
96.50
91.23
87.04
83.91
81.74
80.30
79.34
78.43
77.05
74.69
70.93
65.65
59.00
51.36
43.18
34.81
26.49
18.36
10.50
3.04
-3.94
-10.53
-16.98
-23.70
-31.08
-39.31
-48.19
-57.21
-65.79
-73.43
-80.07
-85.99
-91.86
-98.48
-106.69
-117.15
-129.92
-144.03
-157.27
-166.35
-167.68
-158.56
-138.14
-108.00
-71.65
-33.44
2.73
34.25
60.11
80.40
95.75
106.74
113.71
116.93
116.66
113.46
108.14
101.64
94.92
88.72
83.44
79.19
75.91
73.51
71.98
71.34
71.48
71.97
72.12
71.10
68.27
63.46
57.08
49.97
43.09
37.13
32.28
28.21
24.21
19.51
13.56
6.29
-1.87
-10.15
-17.75
-24.17
-29.52
-34.38
-39.63
-45.93
-53.44
-61.74
-69.99
-77.38
-83.42
-88.20
-92.31
-96.64
-102.22
-109.95
-120.34
-133.05
-146.57
-158.12
-164.17
-161.43
-147.97
-124.08
-92.19
-56.17
-20.06
13.03
41.30
64.26
82.16
95.41
104.40
109.42
110.85
109.25
105.40
100.16
94.37
88.68
83.45
78.84
74.91
71.75
69.49
68.24
67.90
68.01
67.83
66.51
63.44
58.52
52.23
45.43
38.95
33.31
28.47
24.01
19.29
13.86
7.65
0.98
-5.56
-11.47
-16.48
-20.78
-24.87
-29.44
-34.98
-41.61
-49.03
-56.57
-63.57
-69.57
-74.60
-79.11
-83.93
-89.95
-97.91
-108.02
-119.57
-130.80
-138.98
-141.07
-134.60
-118.60
-94.03
-63.61
-30.93
0.60
28.53
51.71
69.93
83.43
92.37
96.81
96.86
92.96
86.11
77.68
69.18
61.86
56.46
53.13
51.59
51.28
51.66
52.24
52.65
52.65
52.05
50.63
48.21
44.65
39.91
34.09
27.48
20.52
13.67
7.29
1.55
-3.67
-8.68
-13.85
-19.49
-25.67
-32.25
-38.88
-45.19
-50.90
-55.96
-60.51
-64.93
-69.72
-75.47
-82.72
-91.77
-102.37
-113.40
-122.74
-127.65
-125.45
-114.54
-95.04
-68.88
-39.23
-9.50
17.57
40.40
58.47
71.81
80.61
84.96
84.97
81.07
74.16
65.55
56.71
48.89
42.85
38.76
36.36
35.22
34.96
35.35
36.19
37.21
37.85
37.38
35.19
31.00
25.07
18.17
11.23
4.96
-0.38
-5.10
-9.87
-15.42
-22.12
-29.94
-38.30
-46.48
-53.78
-59.93
-65.24
-70.48
-76.69
-84.80
-95.13
-106.94
-118.37
-126.63
-128.71
-122.31
-106.66
-82.88
-53.73
-22.72
6.88
32.74
53.71
69.61
80.69
87.29
89.71
88.35
83.85
77.17
69.45
61.74
54.86
49.23
44.95
41.92
40.02
39.09
38.98
39.44
40.02
40.07
38.86
35.82
30.77
24.00
16.31
8.65
1.83
-3.83
-8.59
-13.17
-18.40
-24.86
-32.63
-41.26
-50.03
-58.13
-65.12
-71.03
-76.38
-82.16
-89.50
-99.31
-111.71
-125.61
-138.53
-147.12
-147.95
-138.80
-119.41
-91.72
-59.17
-25.67
5.53
32.46
54.41
71.50
84.20
92.95
98.10
100.05
99.32
96.58
92.57
87.96
83.29
78.90
74.95
71.54
68.72
66.62
65.36
64.94
65.05
65.11
64.21
61.47
56.32
48.73
39.37
29.27
19.56
10.97
3.61
-3.06
-9.91
-17.72
-26.79
-36.84
-47.09
-56.64
-64.86
-71.63
-77.42
-83.13
-89.89
-98.77
-110.38
-124.54
-139.87
-153.69
-162.50
-162.85
-152.47
-131.18
-101.04
-65.70
-29.32
4.63
34.08
58.33
77.62
92.50
103.46
110.70
114.40
114.83
112.51
108.15
102.61
96.68
90.96
85.86
81.57
78.14
75.54
73.68
72.41
71.42
70.34
68.73
66.11
62.15
56.65
49.67
41.50
32.61
23.60
15.04
7.32
0.51
-5.70
-11.93
-18.83
-26.85
-35.95
-45.61
-55.00
-63.29
-70.03
-75.35
-79.94
-84.83
-91.16
-99.89
-111.41
-125.27
-139.83
-152.30
-159.22
-157.35
-144.76
-121.62
-90.24
-54.41
-18.23
14.95
43.16
65.76
83.02
95.55
103.94
108.63
109.99
108.53
104.91
99.92
94.35
88.91
84.09
80.14
77.08
74.80
73.09
71.77
70.62
69.35
67.65
65.16
61.57
56.78
50.84
44.04
36.77
29.47
22.47
15.96
9.99
4.44
-0.93
-6.50
-12.65
-19.67
-27.63
-36.33
-45.32
-54.05
-62.07
-69.17
-75.55
-81.76
-88.60
-96.97
-107.48
-120.10
-133.74
-146.09
-153.99
-154.12
-144.15
-123.58
-94.07
-59.02
-22.49
11.90
41.72
65.89
84.38
97.61
106.03
109.99
109.90
106.38
100.37
92.99
85.42
78.62
73.17
69.27
66.78
65.38
64.72
64.48
64.36
64.08
63.27
61.57
58.68
54.44
48.95
42.51
35.51
28.35
21.30
14.51
8.07
1.98
-3.80
-9.45
-15.25
-21.51
-28.43
-35.97
-43.74
-51.22
-57.85
-63.38
-67.96
-72.10
-76.65
-82.49
-90.35
-100.45
-112.21
-123.94
-133.02
-136.34
-131.29
-116.61
-92.98
-62.92
-30.02
2.08
30.60
54.01
71.92
84.56
92.26
95.28
93.90
88.65
80.56
71.12
61.94
54.39
49.20
46.37
45.32
45.33
45.79
46.42
47.14
47.83
48.17
47.58
45.38
41.16
34.96
27.40
19.44
12.13
6.12
1.48
-2.34
-6.22
-11.00
-17.01
-24.03
-31.31
-38.01
-43.57
-47.99
-51.84
-56.00
-61.38
-68.67
-78.10
-89.30
-101.08
-111.52
-118.07
-118.20
-110.11
-93.49
-69.67
-41.33
-11.75
16.12
40.20
59.47
73.66
82.84
87.17
86.83
82.24
74.20
64.01
53.24
43.42
35.71
30.66
28.23
27.94
29.11
31.03
33.10
34.74
35.44
34.75
32.41
28.44
23.19
17.24
11.20
5.50
0.24
-4.84
-10.12
-15.96
-22.50
-29.54
-36.69
-43.54
-49.88
-55.85
-61.97
-69.00
-77.68
-88.29
-100.25
-111.81
-120.33
-122.83
-117.01
-102.02
-78.98
-50.60
-20.35
8.50
33.68
54.06
69.39
79.82
85.57
86.84
83.99
77.75
69.24
59.82
50.83
43.29
37.79
34.46
33.08
33.22
34.35
35.90
37.23
37.70
36.75
33.99
29.37
23.18
16.05
8.64
1.50
-5.22
-11.68
-18.29
-25.38
-33.03
-40.99
-48.80
-56.03
-62.50
-68.44
-74.52
-81.69
-90.88
-102.53
-116.15
-129.96
-141.03
-145.92
-141.69
-127.01
-102.67
-71.45
-37.22
-3.80
26.01
50.78
70.22
84.70
94.69
100.57
102.69
101.53
97.77
92.34
86.16
79.94
74.16
68.96
64.38
60.47
57.38
55.34
54.39
54.30
54.39
53.67
51.20
46.36
39.20
30.45
21.21
12.56
5.10
-1.31
-7.37
-14.02
-21.91
-31.13
-41.17
-51.17
-60.34
-68.18
-74.79
-80.71
-86.89
-94.45
-104.38
-117.03
-131.60
-145.87
-156.39
-159.38
-151.98
-133.30
-104.94
-70.41
-34.05
0.35
30.32
54.96
74.47
89.51
100.63
108.16
112.28
113.24
111.50
107.73
102.69
97.07
91.33
85.76
80.52
75.76
71.77
68.82
67.12
66.56
66.57
66.26
64.60
60.77
54.49
46.08
36.40
26.55
17.45
9.56
2.71
-3.78
-10.80
-19.03
-28.60
-39.09
-49.65
-59.42
-67.81
-74.72
-80.63
-86.44
-93.29
-102.30
-114.16
-128.68
-144.38
-158.38
-166.94
-166.45
-154.67
-131.63
-99.74
-63.03
-25.90
8.10
37.02
60.39
78.70
92.67
102.85
109.46
112.64
112.71
110.25
106.08
101.07
95.99
91.35
87.44
84.29
81.88
80.19
79.12
78.51
78.04
77.26
75.59
72.51
67.64
60.85
52.36
42.64
32.36
22.23
12.79
4.35
-3.19
-10.24
-17.34
-25.00
-33.43
-42.43
-51.43
-59.73
-66.72
-72.19
-76.35
-79.96
-84.05
-89.82
-98.27
-109.82
-123.89
-138.56
-150.72
-156.68
-153.29
-139.01
-114.55
-82.71
-47.49
-12.91
18.08
43.99
64.59
80.34
91.77
99.22
102.86
102.94
100.00
94.96
88.92
82.96
77.86
73.93
71.12
69.18
67.83
66.92
66.36
66.08
65.77
64.93
62.96
59.35
53.88
46.80
38.69
30.33
22.48
15.59
9.78
4.72
-0.15
-5.47
-11.67
-18.86
-26.72
-34.70
-42.16
-48.71
-54.29
-59.24
-64.21
-69.96
-77.29
-86.75
-98.34
-111.17
-123.28
-131.83
-133.74
-126.65
-109.85
-84.58
-53.76
-21.05
10.17
37.57
59.90
76.83
88.37
94.61
95.76
92.32
85.29
76.12
66.38
57.52
50.41
45.39
42.35
40.95
40.84
41.70
43.23
44.99
46.32
46.47
44.77
40.86
34.88
27.50
19.64
12.17
5.61
-0.04
-5.24
-10.69
-16.94
-24.13
-31.95
-39.74
-46.80
-52.73
-57.62
-62.03
-66.88
-73.17
-81.64
-92.35
-104.35
-115.61
-123.27
-124.37
-116.77
-99.92
-75.20
-45.46
-14.28
15.12
40.49
60.75
75.68
85.48
90.41
90.76
86.92
79.63
70.01
59.49
49.57
41.49
35.97
33.14
32.57
33.51
35.16
36.82
37.89
37.95
36.70
33.95
29.77
24.46
18.47
12.27
6.19
0.26
-5.67
-11.89
-18.57
-25.70
-33.06
-40.34
-47.33
-54.06
-60.83
-68.25
-77.01
-87.62
-99.99
-113.05
-124.65
-131.84
-131.69
-122.24
-103.34
-76.80
-45.90
-14.39
14.60
39.18
58.65
73.15
82.99
88.41
89.51
86.57
80.29
71.83
62.64
54.17
47.51
43.16
41.08
40.79
41.58
42.71
43.52
43.47
42.17
39.43
35.23
29.76
23.29
16.11
8.39
0.22
-8.35
-17.20
-26.06
-34.58
-42.40
-49.36
-55.57
-61.44
-67.64
-74.97
-84.11
-95.40
-108.44
-121.78
-132.92
-138.75
-136.40
-124.20
-102.40
-73.21
-40.16
-7.07
22.98
48.11
67.73
82.06
91.60
96.86
98.24
96.22
91.46
84.85
77.42
70.16
63.85
58.95
55.63
53.84
53.36
53.87
54.91
55.88
55.97
54.45
50.82
45.02
37.52
29.10
20.55
12.36
4.49
-3.48
-12.11
-21.75
-32.30
-43.22
-53.73
-63.14
-71.13
-77.89
-84.15
-91.04
-99.80
-111.25
-125.28
-140.43
-153.79
-161.65
-160.54
-148.41
-125.48
-94.19
-58.47
-22.44
10.64
38.97
62.08
80.36
94.43
104.73
111.51
114.91
115.19
112.86
108.62
103.26
97.49
91.80
86.50
81.79
77.81
74.71
72.54
71.16
70.16
68.88
66.65
62.88
57.27
49.84
40.91
31.07
21.09
11.78
3.76
-2.80
-8.23
-13.39
-19.25
-26.54
-35.40
-45.27
-55.23
-64.28
-71.86
-78.02
-83.35
-88.83
-95.56
-104.55
-116.41
-130.91
-146.56
-160.57
-169.23
-168.90
-157.24
-134.17
-102.01
-64.82
-27.05
7.68
37.32
61.41
80.47
95.30
106.49
114.26
118.70
119.92
118.26
114.34
108.89
102.71
96.45
90.60
85.49
81.39
78.46
76.76
76.10
75.98
75.65
74.33
71.43
66.76
60.59
53.42
45.79
38.09
30.45
22.83
15.17
7.53
0.10
-6.91
-13.43
-19.68
-26.14
-33.29
-41.42
-50.42
-59.76
-68.76
-76.84
-83.85
-90.08
-96.29
-103.46
-112.54
-124.13
-138.02
-152.73
-165.53
-172.81
-171.07
-158.10
-133.87
-100.66
-62.41
-23.47
12.49
43.28
68.18
87.53
102.00
112.29
118.76
121.70
121.43
118.48
113.60
107.64
101.38
95.41
90.10
85.63
82.13
79.69
78.30
77.71
77.35
76.42
74.15
70.05
64.19
57.07
49.43
41.90
34.82
28.13
21.54
14.79
7.75
0.56
-6.54
-13.30
-19.69
-25.83
-32.06
-38.71
-45.99
-53.83
-61.88
-69.59
-76.50
-82.37
-87.41
-92.30
-98.00
-105.61
-115.82
-128.49
-142.16
-154.12
-160.77
-158.76
-146.06
-122.73
-91.11
-55.01
-18.55
14.93
43.48
66.52
84.33
97.38
106.08
110.63
111.28
108.53
103.19
96.33
89.04
82.28
76.69
72.56
69.92
68.55
68.13
68.27
68.48
68.29
67.23
64.95
61.28
56.25
50.09
43.15
35.84
28.52
21.44
14.77
8.56
2.77
-2.77
-8.30
-14.13
-20.56
-27.68
-35.37
-43.22
-50.71
-57.41
-63.18
-68.18
-72.86
-77.78
-83.56
-90.77
-99.69
-110.06
-120.65
-129.23
-132.92
-129.02
-116.00
-94.18
-65.78
-34.19
-2.98
25.10
48.52
66.80
80.04
88.44
92.06
91.07
85.99
77.97
68.62
59.73
52.71
48.25
46.21
45.87
46.38
47.08
47.71
48.26
48.73
48.85
48.12
45.97
41.99
36.22
29.14
21.53
14.27
8.00
2.88
-1.41
-5.62
-10.49
-16.51
-23.61
-31.27
-38.68
-45.24
-50.74
-55.44
-59.97
-65.09
-71.53
-79.81
-90.04
-101.60
-112.91
-121.48
-124.46
-119.44
-105.42
-83.22
-55.34
-25.11
4.20
30.15
51.38
67.41
78.24
84.05
85.10
81.87
75.21
66.33
56.72
47.85
40.81
36.21
34.05
33.94
35.25
37.28
39.34
40.76
40.93
39.43
36.07
31.02
24.80
18.08
11.50
5.39
-0.27
-5.79
-11.58
-17.92
-24.85
-32.16
-39.46
-46.33
-52.57
-58.28
-63.91
-70.17
-77.86
-87.45
-98.73
-110.40
-120.11
-124.86
-121.89
-109.67
-88.54
-60.74
-29.73
0.85
28.11
50.44
67.39
79.15
86.10
88.49
86.58
80.85
72.24
62.06
51.80
42.76
35.85
31.41
29.32
29.09
30.00
31.31
32.33
32.48
31.38
28.85
24.97
19.98
14.24
8.07
1.60
-5.17
-12.39
-20.11
-28.25
-36.55
-44.60
-52.08
-58.86
-65.16
-71.55
-78.87
-88.03
-99.60
-113.32
-127.69
-139.90
-146.42
-144.01
-130.86
-107.33
-75.91
-40.43
-4.95
27.28
54.33
75.51
91.03
101.45
107.42
109.55
108.38
104.45
98.33
90.67
82.16
73.56
65.60
58.94
54.03
51.09
50.00
50.21
50.86
50.91
49.35
45.56
39.45
31.51
22.57
13.43
4.58
-3.88
-12.25
-20.88
-30.01
-39.53
-49.07
-58.19
-66.55
-74.17
-81.38
-88.89
-97.63
-108.50
-121.91
-137.18
-152.21
-163.60
-167.48
-160.81
-142.49
-113.88
-78.39
-40.33
-3.68
28.84
55.98
77.62
94.16
106.16
114.13
118.59
120.01
118.92
115.79
111.05
105.08
98.33
91.32
84.59
78.71
74.10
70.93
68.98
67.63
65.94
62.99
58.12
51.25
42.84
33.70
24.63
16.04
7.89
-0.28
-8.96
-18.43
-28.52
-38.68
-48.27
-56.85
-64.44
-71.60
-79.27
-88.67
-100.84
-116.11
-133.62
-150.94
-164.35
-169.72
-163.81
-145.50
-116.24
-79.70
-40.50
-2.89
30.27
57.79
79.67
96.48
108.78
116.95
121.20
121.80
119.19
113.99
106.95
98.87
90.47
82.48
75.48
69.97
66.19
64.08
63.18
62.76
61.89
59.77
55.92
50.32
43.36
35.62
27.59
19.44
11.03
2.03
-7.77
-18.28
-29.04
-39.40
-48.78
-57.01
-64.42
-71.74
-79.98
-90.12
-102.68
-117.36
-132.57
-145.43
-152.29
-149.76
-135.90
-111.08
-78.02
-40.85
-3.94
29.37
57.31
79.42
96.05
107.61
114.37
116.56
114.57
109.26
101.82
93.57
85.65
78.79
73.25
68.94
65.57
62.91
60.88
59.46
58.60
58.04
57.20
55.30
51.62
45.77
37.93
28.84
19.60
11.18
4.08
-1.91
-7.56
-13.83
-21.33
-30.11
-39.55
-48.63
-56.45
-62.53
-67.04
-70.80
-74.97
-80.79
-89.20
-100.41
-113.60
-126.68
-136.57
-139.85
-133.80
-117.35
-91.60
-59.47
-24.90
8.33
37.53
61.34
79.48
92.20
99.79
102.48
100.59
94.83
86.46
77.11
68.39
61.44
56.66
53.77
52.16
51.22
50.66
50.44
50.50
50.53
49.86
47.68
43.44
37.09
29.19
20.67
12.49
5.26
-0.93
-6.43
-11.77
-17.45
-23.64
-30.16
-36.62
-42.55
-47.77
-52.39
-56.94
-62.19
-68.99
-77.95
-89.01
-101.21
-112.47
-119.89
-120.47
-112.13
-94.45
-69.00
-38.91
-7.87
20.94
45.43
64.75
78.78
87.60
91.27
89.86
83.80
74.13
62.47
50.65
40.35
32.68
28.04
26.16
26.36
27.74
29.40
30.59
30.76
29.64
27.15
23.42
18.71
13.31
7.44
1.26
-5.15
-11.75
-18.52
-25.36
-32.10
-38.58
-44.68
-50.38
-55.83
-61.35
-67.39
-74.51
-83.20
-93.47
-104.49
-114.32
-120.16
-119.11
-109.17
-90.14
-63.85
-33.53
-2.90
24.99
48.30
66.34
79.19
87.11
90.31
89.03
83.73
75.31
65.08
54.53
45.09
37.73
32.92
30.49
29.92
30.42
31.27
31.84
31.69
30.53
28.18
24.57
19.74
13.86
7.17
-0.09
-7.72
-15.57
-23.55
-31.52
-39.28
-46.64
-53.39
-59.51
-65.22
-70.99
-77.63
-86.00
-96.61
-109.04
-121.61
-131.42
-135.03
-129.61
-114.03
-89.32
-58.45
-25.31
6.47
34.37
57.22
74.81
87.39
95.23
98.57
97.78
93.61
87.11
79.48
71.81
64.80
58.82
53.94
50.15
47.48
45.98
45.54
45.86
46.31
46.10
44.45
40.91
35.44
28.44
20.56
12.49
4.68
-2.75
-10.05
-17.61
-25.72
-34.41
-43.38
-52.09
-60.06
-67.08
-73.36
-79.59
-86.79
-96.09
-108.21
-122.92
-138.53
-151.89
-159.04
-156.41
-142.15
-116.92
-83.76
-47.04
-11.08
21.05
47.94
69.50
86.28
98.78
107.28
111.94
113.07
111.29
107.43
102.38
96.87
91.30
85.89
80.71
75.88
71.64
68.28
66.10
65.05
64.67
64.06
62.13
57.95
51.16
42.15
31.93
21.76
12.65
4.98
-1.63
-8.03
-15.22
-23.83
-33.91
-44.88
-55.85
-65.87
-74.37
-81.35
-87.37
-93.47
-100.91
-110.79
-123.60
-138.65
-153.74
-165.33
-169.40
-162.64
-143.80
-114.19
-77.40
-38.13
-0.75
31.79
58.30
78.99
94.70
106.26
114.16
118.65
119.93
118.35
114.44
108.94
102.57
96.05
89.87
84.39
79.79
76.10
73.27
71.20
69.63
68.26
66.61
64.15
60.43
55.12
48.16
39.81
30.59
21.17
12.24
4.28
-2.62
-8.74
-14.67
-21.10
-28.52
-37.02
-46.28
-55.63
-64.35
-71.90
-78.19
-83.51
-88.57
-94.32
-101.79
-111.81
-124.52
-138.95
-152.72
-162.31
-163.93
-154.81
-134.23
-103.99
-67.84
-30.27
4.80
34.94
59.29
78.15
92.21
102.07
108.12
110.57
109.77
106.26
100.86
94.48
88.04
82.25
77.53
74.04
71.69
70.33
69.74
69.68
69.84
69.77
68.92
66.76
62.98
57.54
50.74
43.06
34.98
26.91
19.06
11.55
4.44
-2.29
-8.74
-15.18
-21.94
-29.37
-37.58
-46.33
-55.16
-63.48
-70.88
-77.32
-83.20
-89.28
-96.45
-105.54
-116.92
-130.15
-143.57
-154.36
-159.01
-154.32
-138.56
-112.26
-78.18
-40.51
-3.58
29.34
56.56
77.83
93.64
104.58
110.98
112.98
110.89
105.41
97.70
89.15
81.04
74.23
69.04
65.33
62.71
60.86
59.60
58.85
58.54
58.37
57.88
56.44
53.54
48.92
42.69
35.34
27.55
20.04
13.34
7.59
2.52
-2.46
-8.03
-14.69
-22.45
-30.87
-39.18
-46.66
-52.90
-58.02
-62.57
-67.40
-73.35
-81.11
-90.99
-102.69
-115.00
-125.78
-132.15
-131.22
-121.01
-101.29
-73.78
-41.71
-8.86
21.50
47.26
67.53
82.24
91.66
96.05
95.70
91.11
83.18
73.22
62.66
52.83
44.65
38.58
34.69
32.79
32.55
33.50
35.03
36.43
36.95
35.99
33.26
28.86
23.24
17.04
10.85
5.04
-0.32
-5.45
-10.64
-16.13
-21.97
-27.94
-33.69
-38.86
-43.35
-47.33
-51.33
-56.11
-62.42
-70.79
-81.05
-92.12
-101.89
-107.55
-106.42
-96.86
-78.91
-54.45
-26.58
1.31
26.49
47.35
63.36
74.54
81.06
82.99
80.46
73.90
64.31
53.16
42.12
32.66
25.71
21.57
19.95
20.17
21.38
22.77
23.69
23.69
22.61
20.43
17.31
13.41
8.79
3.44
-2.72
-9.65
-17.11
-24.71
-31.97
-38.54
-44.37
-49.62
-54.70
-60.14
-66.50
-74.33
-83.97
-95.18
-106.81
-116.71
-122.03
-120.02
-109.00
-89.10
-62.34
-32.01
-1.69
25.70
48.47
66.04
78.56
86.36
89.70
88.77
83.94
75.96
66.03
55.65
46.28
38.98
34.21
31.73
30.90
30.89
31.02
30.88
30.26
29.09
27.22
24.46
20.50
15.16
8.44
0.58
-8.00
-16.78
-25.28
-33.21
-40.47
-47.12
-53.38
-59.62
-66.28
-74.01
-83.49
-95.16
-108.79
-123.01
-135.29
-142.33
-141.04
-129.59
-108.21
-79.13
-45.97
-12.56
18.09
44.26
65.44
81.82
93.76
101.50
105.19
105.10
101.75
95.97
88.72
80.87
73.12
65.98
59.81
54.91
51.52
49.71
49.17
49.26
49.06
47.67
44.46
39.34
32.69
25.16
17.42
9.84
2.45
-5.00
-12.88
-21.36
-30.41
-39.66
-48.64
-56.97
-64.54
-71.66
-79.06
-87.77
-98.71
-112.21
-127.45
-142.27
-153.38
-157.21
-151.05
-134.05
-107.56
-74.74
-39.53
-5.50
24.96
50.72
71.70
88.21
100.57
108.95
113.48
114.49
112.56
108.52
103.22
97.44
91.65
86.08
80.85
76.08
71.99
68.82
66.74
65.58
64.81
63.64
61.23
57.00
50.82
43.10
34.55
26.04
18.27
11.43
5.19
-1.19
-8.54
-17.36
-27.58
-38.59
-49.46
-59.36
-67.91
-75.33
-82.40
-90.21
-99.82
-111.92
-126.36
-141.87
-155.95
-165.24
-166.35
-156.99
-136.72
-107.33
-72.22
-35.39
-0.32
30.80
57.02
78.31
94.90
106.97
114.54
117.75
117.03
113.20
107.39
100.73
94.14
88.18
83.02
78.62
74.87
71.81
69.56
68.25
67.76
67.58
66.85
64.63
60.27
53.64
45.25
36.03
27.00
18.86
11.79
5.44
-0.90
-7.97
-16.19
-25.57
-35.60
-45.46
-54.31
-61.61
-67.43
-72.47
-77.89
-85.02
-94.87
-107.75
-122.83
-137.99
-150.09
-155.60
-151.68
-137.01
-112.41
-80.61
-45.44
-10.75
20.61
47.12
68.49
85.07
97.33
105.48
109.59
109.82
106.65
101.00
94.10
87.19
81.19
76.57
73.30
71.06
69.50
68.32
67.34
66.39
65.25
63.58
61.00
57.19
51.99
45.47
37.95
29.99
22.19
15.05
8.77
3.15
-2.36
-8.48
-15.77
-24.38
-33.93
-43.62
-52.61
-60.32
-66.65
-72.03
-77.26
-83.25
-90.85
-100.62
-112.53
-125.64
-137.94
-146.58
-148.46
-141.22
-124.09
-98.22
-66.45
-32.37
0.66
30.25
55.13
74.98
89.85
99.90
105.23
106.10
103.05
97.05
89.38
81.40
74.25
68.62
64.65
62.10
60.52
59.49
58.75
58.18
57.65
56.88
55.38
52.57
48.03
41.73
34.11
25.99
18.29
11.61
6.02
1.10
-3.91
-9.69
-16.56
-24.32
-32.40
-40.02
-46.62
-52.01
-56.52
-60.88
-66.04
-72.88
-81.93
-93.09
-105.42
-117.03
-125.31
-127.49
-121.48
-106.57
-83.82
-55.82
-25.88
2.86
28.15
48.91
64.85
76.10
82.75
84.86
82.63
76.73
68.32
59.00
50.36
43.63
39.41
37.67
37.91
39.41
41.43
43.28
44.36
44.16
42.31
38.67
33.40
26.90
19.74
12.44
5.33
-1.50
-8.09
-14.58
-21.02
-27.34
-33.46
-39.30
-44.92
-50.48
-56.34
-63.01
-70.97
-80.53
-91.39
-102.39
-111.43
-115.86
-113.21
-102.11
-82.78
-57.15
-28.25
0.65
26.90
48.84
65.79
77.63
84.46
86.40
83.72
77.02
67.40
56.43
45.83
37.16
31.37
28.62
28.31
29.34
30.52
30.93
30.14
28.16
25.30
21.90
18.09
13.73
8.56
2.34
-4.94
-13.07
-21.62
-30.09
-38.10
-45.47
-52.23
-58.67
-65.25
-72.65
-81.57
-92.61
-105.79
-120.19
-133.73
-143.31
-145.67
-138.30
-120.49
-93.63
-60.84
-26.03
7.28
36.65
61.00
80.15
94.37
103.89
108.86
109.43
106.00
99.37
90.66
81.15
72.02
64.21
58.17
53.95
51.20
49.36
47.80
46.00
43.65
40.59
36.75
32.06
26.37
19.50
11.32
1.95
-8.25
-18.68
-28.74
-37.97
-46.20
-53.60
-60.62
-67.87
-76.09
-86.03
-98.18
-112.40
-127.48
-141.08
-149.95
-150.82
-141.45
-121.48
-92.68
-58.41
-22.64
11.18
40.77
65.16
84.32
98.66
108.58
114.38
116.33
114.82
110.43
103.95
96.33
88.50
81.21
74.97
69.94
66.01
62.80
59.89
56.85
53.37
49.25
44.45
38.99
32.88
26.05
18.33
9.53
-0.36
-11.10
-22.16
-32.85
-42.59
-51.13
-58.67
-65.81
-73.42
-82.46
-93.59
-106.94
-121.62
-135.59
-145.80
-148.88
-142.11
-124.50
-97.14
-63.13
-26.47
8.91
40.23
66.07
86.13
100.70
110.09
114.49
114.10
109.46
101.59
91.91
81.93
72.90
65.49
59.76
55.27
51.49
47.99
44.67
41.65
39.05
36.75
34.24
30.73
25.43
17.91
8.37
-2.39
-13.23
-23.12
-31.51
-38.51
-44.81
-51.39
-59.24
-69.06
-81.01
-94.58
-108.29
-119.79
-126.24
-124.98
-114.40
-94.52
-67.09
-35.12
-1.97
29.37
56.85
79.35
96.35
107.60
113.01
112.76
107.49
98.43
87.25
75.74
65.37
56.96
50.63
45.95
42.23
38.94
35.85
33.02
30.56
28.41
26.08
22.82
17.85
10.74
1.68
-8.49
-18.63
-27.64
-34.94
-40.62
-45.39
-50.27
-56.37
-64.54
-75.13
-87.74
-101.02
-112.64
-119.73
-119.52
-110.23
-91.73
-65.65
-34.94
-3.03
27.07
53.14
73.96
88.91
97.71
100.34
97.19
89.24
78.11
65.81
54.29
44.95
38.39
34.43
32.34
31.32
30.71
30.12
29.43
28.51
27.15
24.92
21.30
15.88
8.63
-0.01
-9.16
-17.81
-25.19
-31.10
-35.91
-40.47
-45.79
-52.67
-61.57
-72.29
-83.91
-94.72
-102.39
-104.49
-99.14
-85.72
-65.06
-39.41
-11.67
15.30
39.26
58.81
73.11
81.71
84.43
81.44
73.54
62.30
49.78
38.14
29.02
23.16
20.25
19.33
19.21
18.97
18.25
17.08
15.63
13.90
11.52
7.94
2.70
-4.28
-12.57
-21.32
-29.59
-36.70
-42.43
-47.15
-51.63
-56.90
-63.97
-73.47
-85.33
-98.47
-110.63
-118.79
-119.91
-111.87
-94.34
-68.96
-38.81
-7.53
21.80
47.15
67.60
82.88
92.87
97.36
96.29
90.02
79.68
67.10
54.39
43.50
35.62
30.97
28.88
28.24
27.87
27.04
25.55
23.54
21.26
18.71
15.59
11.36
5.55
-2.04
-11.15
-21.07
-30.93
-39.92
-47.53
-53.75
-59.04
-64.24
-70.35
-78.37
-88.89
-101.82
-116.02
-129.22
-138.23
-139.78
-131.40
-112.43
-84.37
-50.50
-14.90
18.72
47.81
71.24
88.94
101.36
109.04
112.41
111.89
108.06
101.70
93.77
85.18
76.78
69.18
62.76
57.68
53.98
51.50
49.91
48.71
47.30
45.04
41.43
36.30
29.81
22.39
14.54
6.58
-1.46
-9.79
-18.69
-28.26
-38.27
-48.26
-57.66
-66.13
-73.68
-80.76
-88.22
-97.09
-108.29
-122.06
-137.46
-152.09
-162.29
-164.13
-154.68
-133.20
-101.55
-63.66
-24.24
12.60
44.33
70.04
90.00
104.84
115.11
121.15
123.24
121.88
117.81
111.92
104.99
97.58
89.98
82.35
74.98
68.31
62.92
59.23
57.31
56.65
56.21
54.76
51.29
45.34
37.29
28.11
19.00
10.83
3.84
-2.49
-9.08
-16.87
-26.25
-36.93
-48.03
-58.54
-67.72
-75.38
-81.96
-88.34
-95.65
-104.96
-116.95
-131.38
-146.76
-160.14
-167.63
-165.52
-151.51
-125.70
-90.72
-50.95
-11.07
25.15
55.67
80.01
98.60
112.10
120.92
125.22
125.20
121.36
114.65
106.33
97.61
89.42
82.20
75.95
70.52
65.77
61.80
58.82
56.99
56.14
55.73
54.89
52.72
48.56
42.25
34.15
25.07
16.00
7.75
0.75
-5.12
-10.49
-16.21
-23.00
-31.13
-40.33
-49.87
-58.91
-66.84
-73.53
-79.37
-85.11
-91.63
-99.82
-110.25
-122.94
-136.89
-149.90
-158.69
-159.62
-149.83
-128.36
-96.71
-58.52
-18.46
19.20
51.52
77.27
96.48
109.83
117.94
121.24
120.14
115.23
107.54
98.38
89.12
80.85
74.15
69.11
65.47
62.89
61.08
59.91
59.25
58.90
58.45
57.31
54.85
50.58
44.35
36.41
27.40
18.20
9.68
2.43
-3.45
-8.44
-13.38
-19.08
-25.98
-33.96
-42.37
-50.37
-57.23
-62.69
-66.98
-70.73
-74.82
-80.18
-87.59
-97.46
-109.51
-122.40
-133.65
-139.94
-138.04
-125.85
-103.26
-72.40
-37.00
-1.25
31.30
58.47
79.42
94.24
103.33
107.08
105.88
100.36
91.54
80.79
69.63
59.31
50.69
44.11
39.56
36.85
35.79
36.16
37.63
39.58
41.17
41.47
39.77
35.83
30.02
23.18
16.21
9.77
4.02
-1.35
-6.90
-13.09
-20.04
-27.44
-34.77
-41.48
-47.29
-52.30
-56.96
-62.05
-68.48
-77.00
-87.80
-100.10
-111.89
-120.14
-121.61
-113.87
-96.28
-70.35
-39.30
-7.01
23.04
48.58
68.56
82.82
91.50
94.76
92.82
86.25
76.14
64.05
51.73
40.75
32.15
26.35
23.19
22.10
22.31
23.05
23.60
23.49
22.38
20.16
16.88
12.72
7.90
2.63
-2.98
-8.91
-15.18
-21.81
-28.68
-35.60
-42.28
-48.47
-54.13
-59.44
-64.85
-71.03
-78.80
-88.78
-100.99
-114.33
-126.41
-133.86
-133.30
-122.48
-101.26
-71.75
-37.69
-3.28
28.04
54.20
74.49
89.05
98.31
102.69
102.53
98.38
91.02
81.54
71.22
61.25
52.60
45.85
41.18
38.42
37.20
36.97
37.13
37.00
35.98
33.57
29.56
24.11
17.66
10.72
3.66
-3.48
-10.97
-19.15
-28.19
-37.87
-47.64
-56.81
-64.83
-71.64
-77.68
-83.88
-91.44
-101.50
-114.66
-130.48
-146.97
-160.80
-167.83
-164.42
-148.64
-121.15
-85.10
-45.10
-5.83
29.21
58.21
80.87
97.65
109.19
116.03
118.59
117.43
113.32
107.14
99.77
91.90
84.07
76.70
70.22
65.03
61.41
59.41
58.71
58.62
58.22
56.60
53.07
47.41
39.91
31.26
22.28
13.58
5.34
-2.72
-11.10
-20.20
-30.05
-40.26
-50.15
-59.12
-66.93
-73.87
-80.73
-88.68
-98.95
-112.33
-128.58
-145.91
-160.97
-169.50
-167.57
-153.05
-126.43
-90.80
-50.76
-11.01
24.97
55.43
80.01
99.07
113.02
122.05
126.32
126.19
122.49
116.32
108.91
101.24
93.93
87.26
81.32
76.21
72.12
69.29
67.82
67.52
67.76
67.61
66.05
62.30
56.11
47.77
38.16
28.31
19.18
11.21
4.23
-2.45
-9.75
-18.35
-28.42
-39.49
-50.65
-60.90
-69.58
-76.68
-82.90
-89.47
-97.88
-109.32
-124.11
-141.18
-157.80
-170.02
-173.59
-165.34
-144.29
-112.15
-72.76
-30.95
8.97
44.00
72.83
95.26
111.67
122.46
127.90
128.36
124.45
117.25
108.14
98.56
89.76
82.51
77.02
73.06
70.23
68.15
66.67
65.79
65.46
65.43
65.11
63.67
60.33
54.69
46.86
37.56
27.78
18.51
10.35
3.32
-3.09
-9.64
-17.04
-25.63
-35.21
-45.13
-54.52
-62.67
-69.27
-74.56
-79.32
-84.65
-91.69
-101.36
-113.92
-128.59
-143.30
-154.80
-159.27
-153.50
-135.94
-107.43
-71.11
-31.39
7.27
41.55
69.70
91.36
106.82
116.49
120.68
119.71
114.27
105.61
95.40
85.31
76.67
70.10
65.53
62.47
60.35
58.86
57.91
57.55
57.69
57.92
57.53
55.73
51.89
45.84
38.00
29.25
20.63
12.97
6.59
1.16
-4.11
-10.16
-17.60
-26.43
-36.02
-45.37
-53.54
-60.06
-65.14
-69.56
-74.46
-81.02
-90.09
-101.78
-115.23
-128.34
-138.10
-141.18
-134.90
-118.21
-92.09
-59.38
-23.95
10.47
40.99
66.05
85.05
97.96
104.90
106.10
102.07
93.86
83.06
71.59
61.25
53.26
48.03
45.21
44.08
43.86
44.07
44.46
44.83
44.82
43.80
41.13
36.34
29.54
21.39
12.94
5.13
-1.49
-7.11
-12.45
-18.46
-25.76
-34.37
-43.66
-52.67
-60.57
-67.02
-72.43
-77.74
-84.10
-92.57
-103.67
-117.00
-130.99
-142.88
-149.18
-146.57
-133.08
-108.87
-76.47
-39.94
-3.72
28.72
55.44
76.00
90.80
100.40
105.16
105.32
101.30
94.06
85.00
75.71
67.50
61.12
56.64
53.69
51.79
50.64
50.22
50.59
51.64
52.86
53.33
51.99
48.08
41.46
32.78
23.25
14.16
6.42
0.18
-5.13
-10.54
-16.97
-24.84
-33.85
-43.15
-51.77
-59.07
-65.02
-70.22
-75.73
-82.83
-92.55
-105.29
-120.35
-135.61
-147.72
-152.83
-147.77
-131.17
-104.10
-69.80
-32.67
3.08
34.46
60.06
79.67
93.73
102.69
106.85
106.53
102.34
95.29
86.72
78.02
70.23
63.94
59.24
55.99
53.99
53.08
53.15
53.90
54.78
54.95
53.55
49.98
44.18
36.65
28.28
20.01
12.47
5.75
-0.57
-7.09
-14.33
-22.37
-30.83
-39.02
-46.32
-52.41
-57.48
-62.14
-67.33
-74.05
-83.06
-94.47
-107.32
-119.49
-127.89
-129.25
-121.25
-103.32
-77.02
-45.50
-12.59
18.36
45.18
66.83
83.13
94.15
99.99
100.69
96.55
88.37
77.47
65.61
54.53
45.64
39.73
36.85
36.47
37.68
39.50
41.05
41.68
40.99
38.77
35.01
29.87
23.62
16.61
9.22
1.75
-5.56
-12.59
-19.30
-25.69
-31.77
-37.55
-43.04
-48.31
-53.55
-59.13
-65.70
-73.97
-84.36
-96.50
-108.80
-118.49
-122.27
-117.36
-102.61
-78.98
-49.37
-17.59
12.77
39.25
60.63
76.66
87.44
93.02
93.40
88.82
80.11
68.76
56.68
45.80
37.60
32.73
31.04
31.71
33.57
35.51
36.64
36.47
34.81
31.70
27.33
21.92
15.72
8.94
1.74
-5.78
-13.52
-21.34
-29.02
-36.28
-42.86
-48.63
-53.72
-58.57
-63.89
-70.59
-79.44
-90.75
-103.94
-117.22
-127.75
-132.23
-127.85
-113.38
-89.59
-59.19
-25.94
6.42
35.09
58.55
76.39
88.84
96.29
99.06
97.53
92.37
84.58
75.51
66.51
58.69
52.66
48.58
46.30
45.52
45.94
47.16
48.66
49.66
49.31
46.86
42.01
35.01
26.62
17.80
9.40
1.79
-5.23
-12.27
-19.98
-28.74
-38.39
-48.21
-57.34
-65.06
-71.25
-76.47
-81.88
-88.92
-98.84
-112.09
-127.79
-143.58
-155.78
-160.36
-154.14
-135.95
-107.15
-71.27
-32.87
3.84
35.98
62.39
83.12
98.82
110.07
117.15
120.14
119.23
114.95
108.21
100.22
92.18
85.08
79.50
75.59
73.16
71.77
70.97
70.29
69.35
67.79
65.31
61.68
56.76
50.52
43.08
34.69
25.74
16.75
8.24
0.62
-5.98
-11.79
-17.33
-23.27
-30.22
-38.44
-47.79
-57.73
-67.51
-76.45
-84.17
-90.75
-96.80
-103.24
-111.16
-121.52
-134.66
-149.84
-164.90
-176.47
-180.59
-174.02
-155.32
-125.59
-88.17
-47.62
-8.33
26.57
55.64
78.83
96.83
110.39
120.02
125.97
128.48
127.95
124.99
120.36
114.86
109.06
103.38
98.09
93.47
89.89
87.69
87.05
87.75
88.99
89.64
88.47
84.70
78.25
69.76
60.31
51.01
42.62
35.30
28.65
22.00
14.75
6.61
-2.21
-11.16
-19.56
-26.98
-33.45
-39.45
-45.76
-53.04
-61.55
-70.96
-80.50
-89.29
-96.65
-102.49
-107.33
-112.28
-118.74
-128.03
-140.79
-156.40
-172.63
-185.73
-191.38
-185.88
-167.54
-137.38
-98.91
-56.95
-16.17
20.09
50.31
74.47
93.34
107.79
118.38
125.45
129.21
130.06
128.52
125.24
120.81
115.70
110.25
104.72
99.45
94.86
91.39
89.34
88.64
88.72
88.61
87.18
83.56
77.45
69.25
59.86
50.41
41.77
34.28
27.73
21.47
14.81
7.30
-1.05
-9.77
-18.14
-25.47
-31.41
-36.11
-40.24
-44.70
-50.24
-57.16
-65.16
-73.45
-81.13
-87.53
-92.55
-96.72
-101.08
-106.94
-115.47
-127.22
-141.55
-156.30
-167.98
-172.52
-166.52
-148.47
-119.42
-82.72
-42.93
-4.47
29.50
57.52
79.47
96.00
107.86
115.57
119.43
119.73
116.96
111.81
105.16
97.88
90.74
84.24
78.71
74.36
71.34
69.71
69.40
69.98
70.75
70.82
69.38
66.01
60.82
54.38
47.46
40.72
34.43
28.47
22.45
15.98
8.96
1.60
-5.63
-12.29
-18.18
-23.49
-28.71
-34.36
-40.73
-47.70
-54.86
-61.62
-67.52
-72.44
-76.66
-80.79
-85.69
-92.29
-101.19
-112.29
-124.40
-135.11
-141.18
-139.49
-128.06
-106.90
-78.11
-45.19
-12.03
18.29
43.94
64.36
79.71
90.36
96.50
98.27
95.94
90.19
82.12
73.07
64.42
57.18
51.95
48.78
47.38
47.18
47.65
48.32
48.89
49.13
48.78
47.56
45.14
41.25
35.86
29.27
22.09
15.13
9.05
4.15
0.20
-3.49
-7.73
-13.14
-19.81
-27.30
-34.84
-41.65
-47.32
-51.96
-56.16
-60.70
-66.34
-73.61
-82.69
-93.25
-104.32
-114.12
-120.20
-119.98
-111.57
-94.48
-70.03
-41.00
-10.83
17.35
41.42
60.46
74.36
83.37
87.72
87.60
83.38
75.84
66.26
56.14
46.91
39.58
34.54
31.68
30.56
30.73
31.77
33.36
35.09
36.40
36.57
35.03
31.53
26.28
19.91
13.21
6.79
0.90
-4.64
-10.17
-16.05
-22.36
-28.90
-35.28
-41.10
-46.15
-50.57
-54.86
-59.79
-66.26
-74.92
-85.77
-97.76
-108.76
-115.90
-116.37
-108.33
-91.66
-68.00
-40.33
-12.00
14.12
36.20
53.47
65.87
73.65
77.05
76.29
71.75
64.11
54.43
44.05
34.43
26.80
21.95
20.04
20.61
22.79
25.52
27.87
29.26
29.44
28.44
26.36
23.27
19.15
13.95
7.66
0.41
-7.51
-15.73
-23.85
-31.60
-38.86
-45.63
-52.04
-58.33
-64.90
-72.35
-81.36
-92.36
-105.00
-117.76
-127.96
-132.40
-128.33
-114.54
-91.84
-62.87
-31.17
-0.20
27.55
50.72
68.94
82.38
91.37
96.24
97.34
95.08
90.01
82.91
74.62
66.11
58.26
51.79
47.09
44.20
42.86
42.52
42.54
42.21
40.94
38.29
34.05
28.34
21.54
14.21
6.85
-0.24
-7.08
-13.97
-21.32
-29.41
-38.20
-47.31
-56.20
-64.41
-71.87
-78.98
-86.63
-95.89
-107.60
-121.79
-137.21
-151.24
-160.32
-160.95
-150.84
-129.78
-99.84
-64.67
-28.38
5.55
35.01
59.26
78.42
93.01
103.49
110.23
113.59
114.04
112.14
108.48
103.62
98.00
91.98
85.92
80.20
75.21
71.34
68.80
67.46
66.83
66.10
64.31
60.64
54.68
46.58
36.97
26.82
17.12
8.48
0.98
-5.83
-12.72
-20.44
-29.38
-39.35
-49.67
-59.49
-68.08
-75.28
-81.56
-87.94
-95.75
-106.16
-119.71
-135.88
-152.70
-166.99
-174.90
-173.05
-159.59
-134.92
-101.68
-63.92
-25.92
8.93
38.71
62.96
82.11
96.93
108.11
116.08
121.06
123.16
122.54
119.46
114.38
107.95
100.96
94.14
88.12
83.22
79.60
77.19
75.83
75.15
74.64
73.60
71.32
67.28
61.29
53.60
44.76
35.44
26.23
17.51
9.43
1.95
-5.17
-12.31
-19.93
-28.41
-37.89
-48.15
-58.59
-68.47
-77.16
-84.44
-90.67
-96.66
-103.54
-112.45
-124.15
-138.54
-154.31
-168.73
-178.07
-178.60
-167.70
-144.96
-112.44
-74.04
-34.28
3.02
35.55
62.51
84.21
101.27
114.16
123.09
128.16
129.59
127.79
123.43
117.31
110.21
102.88
95.90
89.74
84.74
81.07
78.68
77.32
76.44
75.41
73.64
70.70
66.49
61.11
54.78
47.74
40.16
32.22
24.14
16.18
8.53
1.27
-5.81
-13.07
-20.93
-29.61
-39.05
-48.83
-58.34
-66.98
-74.47
-80.95
-86.99
-93.45
-101.25
-111.14
-123.36
-137.31
-151.28
-162.46
-167.46
-163.19
-148.02
-122.41
-88.96
-51.66
-14.59
19.07
47.63
70.71
88.67
102.04
111.19
116.33
117.73
115.87
111.50
105.57
99.04
92.71
87.21
82.89
79.90
78.19
77.51
77.46
77.51
77.06
75.57
72.67
68.24
62.47
55.68
48.28
40.64
32.97
25.38
17.85
10.35
2.92
-4.34
-11.27
-17.84
-24.18
-30.63
-37.53
-45.08
-53.15
-61.35
-69.14
-76.09
-82.08
-87.39
-92.66
-98.79
-106.69
-116.93
-129.26
-142.23
-153.14
-158.52
-155.13
-141.14
-116.81
-84.59
-48.36
-12.21
20.57
48.12
69.93
86.36
98.00
105.33
108.67
108.30
104.73
98.81
91.62
84.32
77.85
72.75
69.20
66.99
65.83
65.37
65.29
65.23
64.75
63.45
60.97
57.23
52.35
46.63
40.42
33.93
27.25
20.39
13.38
6.34
-0.54
-7.07
-13.20
-19.08
-25.01
-31.36
-38.34
-45.87
-53.58
-60.98
-67.58
-73.19
-77.98
-82.54
-87.68
-94.35
-103.20
-114.22
-126.34
-137.32
-144.01
-143.22
-132.73
-112.23
-83.51
-49.95
-15.51
16.41
43.65
65.35
81.54
92.64
99.04
101.13
99.39
94.60
87.82
80.23
72.94
66.73
62.02
58.89
57.18
56.59
56.79
57.38
57.91
57.95
57.10
55.12
51.96
47.76
42.74
37.18
31.31
25.32
19.34
13.48
7.81
2.34
-3.03
-8.50
-14.32
-20.72
-27.75
-35.25
-42.86
-50.10
-56.59
-62.22
-67.20
-72.04
-77.43
-84.16
-92.87
-103.77
-116.21
-128.52
-137.97
-141.41
-136.14
-120.97
-96.71
-66.04
-32.67
-0.24
28.54
52.21
70.41
83.32
91.23
94.45
93.36
88.65
81.43
73.05
64.87
57.91
52.70
49.22
47.15
46.04
45.55
45.48
45.71
46.03
46.07
45.31
43.21
39.44
33.99
27.31
20.12
13.24
7.27
2.42
-1.66
-5.63
-10.23
-15.90
-22.57
-29.65
-36.35
-41.96
-46.24
-49.54
-52.65
-56.56
-62.19
-70.15
-80.46
-92.34
-104.13
-113.36
-117.27
-113.56
-101.17
-80.74
-54.49
-25.56
2.87
28.40
49.59
65.90
77.27
83.76
85.48
82.69
76.08
66.77
56.23
46.02
37.46
31.32
27.81
26.61
27.09
28.52
30.18
31.50
31.98
31.30
29.26
25.88
21.36
16.06
10.37
4.57
-1.21
-7.03
-13.02
-19.24
-25.60
-31.85
-37.73
-43.13
-48.13
-53.11
-58.69
-65.55
-74.20
-84.61
-95.86
-106.07
-112.61
-112.81
-104.80
-88.24
-64.61
-36.71
-7.94
18.75
41.44
59.33
72.37
80.78
84.64
83.99
79.02
70.42
59.48
47.94
37.57
29.71
24.95
23.06
23.22
24.35
25.46
25.92
25.47
24.14
22.09
19.37
15.96
11.68
6.40
0.09
-7.11
-14.84
-22.69
-30.25
-37.30
-43.85
-50.15
-56.64
-63.92
-72.58
-83.11
-95.50
-108.97
-121.68
-130.91
-133.66
-127.54
-111.69
-87.15
-56.69
-23.94
7.60
35.36
58.03
75.33
87.52
95.02
98.14
97.18
92.65
85.38
76.53
67.39
59.15
52.66
48.28
45.94
45.22
45.47
45.92
45.86
44.67
42.04
37.93
32.58
26.36
19.57
12.34
4.62
-3.73
-12.74
-22.27
-32.01
-41.59
-50.68
-59.16
-67.10
-74.80
-82.83
-91.97
-103.10
-116.77
-132.60
-148.85
-162.36
-169.28
-166.16
-151.29
-125.36
-91.35
-53.45
-15.85
18.37
47.63
71.56
90.40
104.55
114.29
119.85
121.59
120.12
116.24
110.81
104.56
98.08
91.71
85.69
80.32
75.93
72.86
71.25
70.83
70.86
70.19
67.67
62.60
54.92
45.35
35.04
25.20
16.59
9.30
2.71
-4.18
-12.30
-22.12
-33.41
-45.34
-56.83
-67.01
-75.56
-82.85
-89.82
-97.75
-107.90
-121.02
-136.88
-153.78
-168.62
-177.35
-176.16
-162.77
-137.36
-102.65
-63.08
-23.30
13.03
44.01
69.27
89.39
105.07
116.75
124.58
128.60
129.05
126.48
121.67
115.54
108.87
102.29
96.18
90.76
86.17
82.58
80.14
78.92
78.68
78.79
78.27
76.05
71.32
63.85
54.10
43.08
32.00
21.85
13.08
5.48
-1.60
-9.03
-17.43
-27.06
-37.63
-48.51
-58.86
-67.96
-75.48
-81.62
-87.09
-93.06
-100.82
-111.38
-124.99
-140.67
-155.99
-167.37
-170.99
-163.86
-144.93
-115.53
-78.99
-39.64
-1.57
32.34
60.70
83.31
100.64
113.19
121.25
125.02
124.74
120.96
114.59
106.79
98.74
91.43
85.41
80.89
77.75
75.72
74.55
74.00
73.81
73.62
72.97
71.28
68.05
62.95
56.00
47.57
38.34
29.10
20.46
12.76
5.93
-0.47
-7.05
-14.37
-22.79
-32.32
-42.59
-52.98
-62.76
-71.29
-78.34
-84.11
-89.32
-95.07
-102.55
-112.66
-125.44
-139.70
-152.81
-161.21
-161.27
-150.54
-128.61
-97.43
-60.72
-22.81
12.53
42.93
67.43
86.16
99.56
108.09
112.04
111.74
107.86
101.39
93.59
85.68
78.63
72.97
68.82
66.03
64.26
63.23
62.67
62.37
62.05
61.34
59.76
56.86
52.32
46.17
38.77
30.79
22.98
15.99
10.13
5.27
0.87
-3.78
-9.33
-16.11
-23.93
-32.22
-40.16
-47.09
-52.71
-57.24
-61.31
-65.83
-71.68
-79.56
-89.72
-101.61
-113.69
-123.44
-127.85
-124.28
-111.40
-89.77
-61.73
-30.70
-0.12
27.36
50.27
68.08
80.77
88.39
90.99
88.85
82.72
73.98
64.29
55.32
48.21
43.43
40.79
39.75
39.73
40.36
41.49
42.93
44.36
45.12
44.41
41.51
36.19
28.84
20.40
12.05
4.72
-1.20
-6.01
-10.47
-15.38
-21.23
-27.95
-35.08
-41.95
-48.03
-53.18
-57.66
-62.11
-67.32
-74.11
-82.98
-93.81
-105.51
-115.96
-122.32
-121.83
-112.66
-94.68
-69.61
-40.51
-10.80
16.63
39.97
58.49
72.14
81.05
85.28
84.90
80.22
72.08
61.82
51.10
41.48
34.09
29.39
27.22
27.03
28.10
29.74
31.39
32.54
32.71
31.51
28.69
24.27
18.58
12.19
5.67
-0.64
-6.70
-12.74
-19.05
-25.78
-32.80
-39.68
-45.96
-51.31
-55.85
-60.10
-64.96
-71.39
-80.05
-90.74
-102.19
-112.00
-117.21
-115.10
-104.17
-84.73
-58.88
-29.83
-0.94
25.14
46.90
63.84
76.04
83.75
87.14
86.42
81.97
74.55
65.27
55.41
46.24
38.70
33.27
30.05
28.72
28.72
29.40
30.05
30.04
28.87
26.29
22.33
17.27
11.51
5.34
-1.13
-7.93
-15.11
-22.64
-30.27
-37.66
-44.48
-50.60
-56.11
-61.43
-67.16
-74.06
-82.83
-93.80
-106.55
-119.55
-130.15
-135.09
-131.49
-117.89
-94.87
-65.04
-32.18
-0.11
28.36
51.82
70.13
83.73
93.11
98.50
99.98
97.82
92.64
85.43
77.34
69.38
62.22
56.22
51.48
48.04
45.90
44.95
44.92
45.20
44.98
43.42
39.92
34.37
27.22
19.26
11.34
3.98
-2.84
-9.60
-16.95
-25.40
-34.89
-44.93
-54.69
-63.50
-71.07
-77.74
-84.38
-92.14
-102.08
-114.72
-129.44
-144.26
-156.00
-160.94
-155.99
-139.79
-113.32
-79.60
-42.79
-6.88
25.25
52.19
73.77
90.45
102.78
111.19
115.91
117.26
115.63
111.66
106.05
99.50
92.64
85.92
79.65
74.07
69.40
65.86
63.56
62.41
61.96
61.45
59.95
56.65
51.09
43.41
34.27
24.65
15.58
7.67
0.97
-5.13
-11.58
-19.25
-28.53
-39.15
-50.29
-60.91
-70.22
-78.00
-84.68
-91.23
-98.91
-108.95
-122.01
-137.79
-154.53
-169.11
-177.57
-176.25
-163.01
-138.14
-104.33
-65.86
-27.21
8.14
38.34
63.02
82.70
98.12
109.77
117.87
122.52
123.91
122.44
118.71
113.46
107.40
101.16
95.18
89.72
84.94
81.01
78.04
76.08
74.92
74.04
72.58
69.63
64.49
56.95
47.43
36.88
26.45
17.08
9.20
2.56
-3.62
-10.39
-18.52
-28.27
-39.27
-50.64
-61.38
-70.76
-78.53
-85.07
-91.21
-98.08
-106.88
-118.45
-132.79
-148.65
-163.32
-173.07
-174.07
-163.68
-141.42
-109.27
-71.08
-31.38
5.93
38.37
65.03
86.03
101.93
113.21
120.09
122.79
121.71
117.55
111.32
104.06
96.72
89.94
84.06
79.23
75.45
72.72
71.01
70.20
69.97
69.81
69.07
67.04
63.23
57.40
49.72
40.73
31.28
22.23
14.23
7.48
1.60
-4.17
-10.74
-18.73
-28.21
-38.68
-49.21
-58.91
-67.23
-74.16
-80.18
-86.10
-92.83
-101.27
-111.99
-124.91
-138.86
-151.37
-158.98
-158.11
-146.26
-123.07
-90.57
-52.65
-13.75
22.30
53.15
77.92
96.73
110.00
118.11
121.33
120.03
114.99
107.33
98.43
89.56
81.58
74.94
69.69
65.67
62.75
60.80
59.67
59.06
58.55
57.60
55.80
52.90
48.86
43.76
37.75
31.02
23.80
16.42
9.26
2.64
-3.27
-8.58
-13.67
-19.03
-25.17
-32.36
-40.48
-49.06
-57.35
-64.66
-70.60
-75.31
-79.50
-84.21
-90.51
-99.23
-110.50
-123.54
-136.43
-146.26
-149.68
-143.90
-127.59
-101.56
-68.63
-32.79
1.96
32.67
57.86
77.31
91.47
100.80
105.60
106.06
102.66
96.30
88.29
80.08
72.88
67.34
63.50
61.00
59.27
57.90
56.72
55.78
55.12
54.63
53.89
52.32
49.35
44.62
38.20
30.52
22.33
14.45
7.49
1.66
-3.29
-8.01
-13.19
-19.37
-26.62
-34.55
-42.49
-49.79
-56.08
-61.39
-66.19
-71.16
-77.09
-84.68
-94.35
-105.93
-118.31
-129.35
-136.09
-135.56
-125.72
-106.28
-78.97
-46.95
-13.98
16.73
43.08
64.20
79.95
90.55
96.22
97.22
94.03
87.60
79.24
70.42
62.35
55.73
50.71
46.97
44.13
41.90
40.25
39.25
38.87
38.76
38.30
36.73
33.53
28.63
22.52
16.00
9.88
4.55
-0.09
-4.58
-9.53
-15.29
-21.77
-28.46
-34.81
-40.40
-45.24
-49.68
-54.34
-59.92
-67.03
-75.96
-86.38
-97.09
-105.95
-110.27
-107.56
-96.38
-77.04
-51.55
-23.09
5.00
30.01
50.38
65.56
75.58
80.67
81.03
77.00
69.25
58.94
47.62
36.93
28.29
22.55
19.92
20.04
22.12
25.20
28.35
30.80
32.03
31.80
30.10
27.07
22.92
17.87
12.08
5.65
-1.31
-8.68
-16.25
-23.78
-30.99
-37.64
-43.63
-49.06
-54.16
-59.38
-65.33
-72.57
-81.45
-91.64
-101.86
-109.82
-112.73
-108.17
-95.01
-73.96
-47.42
-18.66
9.15
33.75
53.97
69.43
80.05
85.69
86.20
81.73
73.06
61.65
49.41
38.21
29.44
23.71
20.83
20.03
20.35
20.89
21.06
20.60
19.49
17.81
15.61
12.84
9.35
4.93
-0.56
-7.08
-14.40
-22.07
-29.57
-36.48
-42.58
-48.00
-53.18
-58.81
-65.67
-74.42
-85.35
-98.02
-110.95
-121.68
-127.17
-124.72
-112.86
-91.95
-64.21
-33.06
-2.08
25.88
49.18
67.32
80.45
88.90
92.84
92.48
88.17
80.72
71.36
61.57
52.73
45.79
41.12
38.56
37.60
37.56
37.80
37.76
36.97
35.12
32.08
27.89
22.73
16.72
9.96
2.47
-5.74
-14.52
-23.54
-32.38
-40.64
-48.15
-55.03
-61.71
-68.89
-77.39
-88.01
-101.22
-116.70
-132.97
-147.27
-156.09
-156.04
-145.12
-123.45
-93.31
-58.40
-22.71
10.54
39.37
63.04
81.51
95.14
104.33
109.55
111.37
110.46
107.51
103.13
97.87
92.15
86.36
80.88
76.04
72.17
69.43
67.82
67.03
66.42
65.10
62.19
57.14
49.94
41.22
31.92
22.90
14.59
6.78
-1.21
-10.10
-20.25
-31.49
-43.13
-54.28
-64.26
-72.87
-80.47
-87.92
-96.43
-107.16
-120.86
-137.19
-154.33
-169.02
-177.19
-175.19
-161.08
-135.38
-100.99
-62.24
-23.51
11.89
42.27
67.29
87.40
103.19
115.03
123.03
127.21
127.79
125.22
120.27
113.88
107.02
100.47
94.73
90.01
86.36
83.68
81.87
80.73
79.95
79.04
77.42
74.53
69.95
63.56
55.52
46.28
36.47
26.78
17.76
9.64
2.25
-4.97
-12.70
-21.47
-31.44
-42.25
-53.16
-63.35
-72.27
-79.83
-86.45
-92.97
-100.44
-109.90
-122.04
-136.81
-153.00
-168.05
-178.40
-180.29
-171.02
-149.85
-118.46
-80.44
-40.19
-1.72
32.24
60.47
82.88
99.97
112.29
120.26
124.22
124.55
121.86
117.00
110.92
104.51
98.48
93.27
89.05
85.88
83.68
82.36
81.66
81.15
80.27
78.39
75.12
70.38
64.45
57.85
51.01
44.22
37.42
30.44
23.13
15.54
7.91
0.51
-6.54
-13.36
-20.29
-27.71
-35.83
-44.56
-53.48
-62.05
-69.75
-76.36
-82.08
-87.49
-93.54
-101.28
-111.59
-124.61
-139.37
-153.58
-163.85
-166.54
-158.88
-139.95
-111.11
-75.63
-37.64
-1.00
31.61
58.92
80.73
97.32
108.97
115.88
118.24
116.53
111.60
104.69
97.09
89.97
84.13
79.89
77.21
75.76
75.12
74.88
74.69
74.20
73.08
70.99
67.71
63.17
57.47
50.88
43.71
36.24
28.75
21.43
14.44
7.92
1.87
-3.84
-9.48
-15.41
-21.89
-28.96
-36.42
-43.87
-50.88
-57.17
-62.74
-67.88
-73.12
-79.13
-86.59
-95.93
-107.04
-118.93
-129.59
-136.26
-136.09
-127.10
-108.92
-83.07
-52.48
-20.60
9.56
35.96
57.60
74.14
85.55
91.91
93.45
90.78
84.95
77.31
69.28
62.01
56.22
52.15
49.67
48.46
48.16
48.48
49.14
49.81
50.03
49.29
47.01
42.86
36.87
29.50
21.53
13.84
7.02
1.20
-4.00
-9.23
-15.07
-21.73
-28.99
-36.27
-43.01
-48.91
-54.06
-58.92
-64.16
-70.43
-78.27
-87.80
-98.52
-109.10
-117.36
-120.72
-116.86
-104.63
-84.50
-58.55
-29.83
-1.47
24.12
45.57
62.38
74.49
81.96
84.82
83.24
77.77
69.48
59.83
50.40
42.49
36.88
33.74
32.69
33.08
34.11
35.12
35.57
35.07
33.35
30.28
25.87
20.32
14.00
7.33
0.67
-5.85
-12.28
-18.82
-25.58
-32.45
-39.14
-45.24
-50.53
-55.19
-59.88
-65.57
-73.21
-83.29
-95.42
-108.07
-118.82
-124.78
-123.45
-113.44
-94.95
-69.78
-40.81
-11.21
16.31
39.96
58.92
73.05
82.53
87.53
88.25
85.01
78.44
69.62
59.87
50.59
42.90
37.44
34.27
33.03
33.09
33.77
34.43
34.55
33.71
31.63
28.21
23.56
17.89
11.45
4.45
-3.05
-11.00
-19.35
-27.91
-36.38
-44.45
-51.89
-58.70
-65.13
-71.67
-78.97
-87.73
-98.39
-110.80
-123.79
-135.13
-141.81
-140.92
-130.54
-110.63
-83.02
-50.97
-18.09
12.58
39.20
61.02
78.12
90.78
99.31
103.92
104.93
102.87
98.51
92.75
86.40
80.09
74.19
68.88
64.32
60.62
57.91
56.18
55.16
54.28
52.68
49.54
44.30
37.00
28.25
19.04
10.37
2.86
-3.50
-9.30
-15.43
-22.65
-31.23
-40.85
-50.74
-60.05
-68.23
-75.25
-81.64
-88.38
-96.57
-107.14
-120.37
-135.44
-150.21
-161.39
-165.36
-159.24
-142.02
-114.94
-81.19
-44.84
-9.61
21.97
48.71
70.47
87.54
100.24
108.75
113.29
114.22
112.16
107.94
102.44
96.48
90.64
85.27
80.53
76.47
73.20
70.80
69.32
68.57
68.07
67.05
64.68
60.37
53.94
45.70
36.36
26.81
17.78
9.66
2.30
-4.80
-12.35
-20.89
-30.54
-40.93
-51.33
-60.97
-69.35
-76.51
-83.04
-89.94
-98.29
-108.94
-122.06
-136.81
-151.11
-161.91
-165.77
-159.88
-143.04
-116.16
-82.08
-44.75
-8.06
25.08
53.19
75.96
93.73
106.96
115.93
120.77
121.70
119.20
114.05
107.24
99.81
92.62
86.27
81.00
76.85
73.75
71.59
70.28
69.62
69.23
68.48
66.60
62.90
57.03
49.16
39.90
30.17
20.86
12.56
5.35
-1.09
-7.44
-14.35
-22.30
-31.29
-40.94
-50.53
-59.36
-66.99
-73.41
-79.14
-85.01
-91.96
-100.85
-112.14
-125.56
-139.81
-152.45
-160.20
-159.80
-149.04
-127.61
-97.37
-61.80
-24.94
9.77
40.14
65.32
85.34
100.54
111.12
117.14
118.71
116.24
110.65
103.19
95.32
88.21
82.58
78.51
75.69
73.60
71.88
70.37
69.12
68.12
67.07
65.42
62.45
57.60
50.70
42.12
32.67
23.33
14.91
7.78
1.76
-3.79
-9.72
-16.71
-24.98
-34.25
-43.81
-52.83
-60.71
-67.30
-72.95
-78.42
-84.68
-92.62
-102.88
-115.41
-129.25
-142.30
-151.54
-153.69
-146.23
-128.30
-101.10
-67.62
-31.69
3.09
34.19
60.37
81.29
97.04
107.69
113.24
113.84
110.03
102.92
93.94
84.64
76.25
69.48
64.54
61.23
59.16
58.02
57.54
57.46
57.42
56.87
55.16
51.72
46.30
39.11
30.88
22.53
14.91
8.40
2.86
-2.39
-8.12
-14.89
-22.78
-31.30
-39.68
-47.20
-53.51
-58.80
-63.68
-69.07
-75.86
-84.68
-95.58
-107.75
-119.35
-127.71
-129.95
-123.83
-108.48
-84.93
-55.72
-24.24
6.25
33.33
55.66
72.77
84.65
91.43
93.28
90.63
84.28
75.49
65.75
56.54
48.96
43.59
40.45
39.13
39.02
39.47
39.91
39.89
39.02
36.99
33.63
28.93
23.07
16.49
9.74
3.23
-2.83
-8.56
-14.33
-20.48
-27.13
-34.12
-41.03
-47.49
-53.32
-58.74
-64.30
-70.75
-78.80
-88.77
-100.18
-111.52
-120.26
-123.46
-118.61
-104.54
-81.97
-53.37
-22.17
8.12
34.91
56.74
73.17
84.31
90.40
91.70
88.52
81.57
71.95
61.15
50.72
41.93
35.58
31.84
30.38
30.59
31.72
33.01
33.80
33.55
31.88
28.60
23.85
17.97
11.41
4.59
-2.23
-8.99
-15.81
-22.80
-29.98
-37.26
-44.40
-51.19
-57.54
-63.61
-69.83
-76.89
-85.53
-96.11
-108.21
-120.30
-129.80
-133.65
-129.21
-115.23
-92.38
-63.09
-30.87
0.75
29.03
52.48
70.64
83.72
92.11
96.15
96.12
92.44
85.81
77.24
67.90
58.94
51.26
45.36
41.40
39.22
38.48
38.69
39.23
39.40
38.50
36.01
31.80
26.15
19.63
12.86
6.21
-0.30
-6.98
-14.18
-22.10
-30.64
-39.41
-47.92
-55.79
-62.96
-69.68
-76.55
-84.40
-94.10
-106.20
-120.44
-135.29
-147.94
-154.81
-152.60
-139.47
-115.84
-84.29
-48.79
-13.44
18.64
45.79
67.61
84.46
96.87
105.23
109.79
110.88
109.02
104.92
99.36
93.07
86.57
80.21
74.22
68.86
64.43
61.24
59.45
58.90
58.96
58.62
56.79
52.64
45.93
37.15
27.33
17.68
9.16
2.15
-3.65
-9.07
-15.05
-22.29
-30.97
-40.68
-50.63
-59.99
-68.26
-75.46
-82.27
-89.78
-99.24
-111.55
-126.76
-143.59
-159.35
-170.37
-172.89
-164.32
-144.10
-114.00
-77.58
-39.14
-2.46
29.98
57.16
79.10
96.37
109.44
118.60
123.94
125.61
123.97
119.66
113.54
106.58
99.58
93.14
87.60
83.06
79.54
76.95
75.13
73.79
72.53
70.84
68.22
64.23
58.66
51.53
43.11
33.92
24.64
15.90
8.11
1.22
-5.26
-12.08
-19.98
-29.29
-39.78
-50.70
-61.10
-70.17
-77.61
-83.76
-89.47
-95.88
-104.10
-114.89
-128.30
-143.40
-158.04
-169.07
-172.98
-166.83
-149.29
-121.22
-85.50
-46.20
-7.47
27.53
57.05
80.70
98.90
112.24
121.21
126.06
127.03
124.54
119.28
112.23
104.44
96.81
90.02
84.39
80.07
77.11
75.42
74.81
74.82
74.77
73.87
71.45
67.25
61.44
54.53
47.08
39.47
31.80
23.97
15.88
7.63
-0.45
-7.99
-14.77
-20.92
-26.86
-33.16
-40.21
-48.07
-56.46
-64.79
-72.52
-79.29
-85.13
-90.48
-96.13
-103.12
-112.39
-124.36
-138.40
-152.52
-163.46
-167.43
-161.29
-143.65
-115.47
-79.86
-41.07
-3.25
30.51
58.68
80.91
97.56
109.14
116.05
118.64
117.36
112.96
106.42
98.83
91.25
84.49
79.06
75.14
72.63
71.32
70.87
70.90
70.98
70.64
69.37
66.77
62.65
57.08
50.40
43.05
35.47
27.91
20.45
13.08
5.82
-1.21
-7.84
-14.00
-19.83
-25.68
-31.97
-38.94
-46.55
-54.45
-62.12
-69.11
-75.28
-80.83
-86.31
-92.47
-100.14
-109.93
-121.83
-134.86
-146.75
-154.32
-154.17
-143.84
-122.75
-92.55
-56.65
-19.18
16.18
46.93
71.94
91.05
104.53
112.68
115.78
114.26
108.92
100.91
91.64
82.45
74.36
67.89
63.05
59.56
57.04
55.27
54.18
53.72
53.77
53.87
53.35
51.52
47.92
42.54
35.78
28.35
20.94
14.05
7.90
2.46
-2.51
-7.36
-12.49
-18.25
-24.78
-31.91
-39.19
-46.02
-51.98
-57.03
-61.58
-66.39
-72.27
-79.87
-89.46
-100.65
-112.33
-122.48
-128.46
-127.60
-117.97
-99.17
-72.67
-41.45
-9.14
20.99
46.69
66.92
81.54
90.79
94.96
94.36
89.51
81.29
71.01
60.21
50.33
42.39
36.84
33.57
32.17
32.10
32.86
34.00
35.05
35.46
34.63
32.13
27.84
22.10
15.61
9.14
3.24
-1.97
-6.78
-11.74
-17.34
-23.70
-30.61
-37.52
-43.90
-49.44
-54.25
-58.85
-64.05
-70.71
-79.38
-89.87
-101.00
-110.56
-115.77
-114.04
-103.84
-85.29
-60.22
-31.59
-2.67
23.82
46.18
63.67
76.14
83.64
86.22
84.04
77.55
67.72
56.01
44.20
33.97
26.49
22.24
20.88
21.53
23.09
24.49
25.01
24.27
22.25
19.16
15.28
10.82
5.85
0.28
-6.04
-13.13
-20.82
-28.70
-36.28
-43.11
-49.12
-54.52
-59.84
-65.77
-72.96
-82.02
-93.17
-106.03
-119.20
-130.26
-136.10
-133.80
-121.69
-100.04
-71.13
-38.53
-5.95
23.67
48.70
68.62
83.57
93.79
99.47
100.77
98.07
92.10
83.92
74.78
65.87
58.16
52.20
48.19
45.94
44.99
44.72
44.47
43.64
41.71
38.38
33.56
27.40
20.19
12.33
4.11
-4.31
-12.91
-21.73
-30.74
-39.77
-48.59
-56.92
-64.70
-72.06
-79.53
-87.84
-97.88
-110.31
-125.08
-140.95
-155.36
-164.77
-165.64
-155.55
-134.19
-103.53
-67.23
-29.50
6.06
37.17
62.91
83.31
98.80
109.87
116.92
120.33
120.53
118.06
113.44
107.22
99.94
92.15
84.40
77.32
71.43
67.11
64.46
63.15
62.51
61.62
59.57
55.71
49.90
42.51
34.21
25.73
17.53
9.60
1.56
-7.12
-16.77
-27.33
-38.32
-48.98
-58.65
-67.06
-74.51
-81.86
-90.35
-101.18
-115.05
-131.49
-148.56
-162.88
-170.46
-167.81
-153.20
-127.36
-93.27
-55.21
-17.40
17.07
46.61
70.91
90.26
105.00
115.31
121.29
123.21
121.66
117.55
111.88
105.56
99.21
93.16
87.57
82.59
78.47
75.47
73.79
73.23
73.16
72.57
70.38
65.81
58.71
49.59
39.46
29.46
20.38
12.47
5.38
-1.64
-9.43
-18.43
-28.58
-39.28
-49.66
-58.91
-66.63
-73.02
-78.85
-85.28
-93.61
-104.82
-119.07
-135.23
-150.66
-161.67
-164.35
-155.90
-135.66
-105.43
-68.91
-30.53
5.80
37.59
63.79
84.43
99.90
110.60
116.73
118.50
116.39
111.25
104.21
96.50
89.19
82.97
78.04
74.30
71.46
69.35
67.90
67.15
67.00
67.06
66.58
64.63
60.47
53.78
44.99
35.09
25.36
16.80
9.83
4.04
-1.54
-8.01
-16.07
-25.71
-36.28
-46.76
-56.24
-64.25
-70.93
-76.90
-83.10
-90.47
-99.81
-111.46
-124.97
-138.78
-150.17
-155.74
-152.35
-138.21
-113.69
-81.34
-45.11
-9.13
23.45
50.98
73.08
90.08
102.24
109.60
112.13
110.05
104.22
96.10
87.36
79.49
73.40
69.29
66.80
65.31
64.22
63.19
62.10
60.96
59.71
58.13
55.79
52.22
47.07
40.29
32.24
23.64
15.34
8.04
1.92
-3.32
-8.45
-14.27
-21.31
-29.52
-38.34
-46.88
-54.37
-60.44
-65.24
-69.37
-73.71
-79.15
-86.49
-96.24
-108.25
-121.46
-133.69
-141.88
-142.77
-134.00
-114.97
-87.27
-54.14
-19.54
13.07
41.39
64.43
82.07
94.48
101.83
104.26
102.15
96.37
88.27
79.47
71.46
65.20
61.04
58.68
57.52
56.92
56.44
55.95
55.44
54.89
54.08
52.55
49.73
45.25
39.05
31.49
23.31
15.35
8.29
2.45
-2.38
-6.80
-11.55
-17.27
-24.20
-32.06
-40.27
-48.13
-55.13
-61.16
-66.54
-71.86
-77.90
-85.40
-94.85
-106.18
-118.42
-129.57
-136.77
-137.04
-128.21
-109.75
-83.10
-51.31
-18.12
13.06
39.93
61.39
77.32
88.02
93.88
95.24
92.56
86.62
78.59
69.80
61.54
54.70
49.66
46.30
44.27
43.20
42.87
43.09
43.71
44.35
44.46
43.39
40.68
36.19
30.27
23.65
17.19
11.48
6.62
2.16
-2.65
-8.49
-15.61
-23.65
-31.80
-39.20
-45.28
-50.07
-54.13
-58.40
-63.85
-71.23
-80.72
-91.64
-102.37
-110.47
-113.21
-108.38
-95.08
-74.13
-47.86
-19.48
7.91
32.01
51.55
66.16
75.89
80.85
81.20
77.28
69.82
60.02
49.43
39.60
31.74
26.51
23.94
23.60
24.73
26.52
28.22
29.26
29.22
27.92
25.34
21.60
16.91
11.52
5.61
-0.67
-7.24
-14.00
-20.77
-27.33
-33.42
-38.89
-43.72
-48.07
-52.28
-56.89
-62.55
-69.86
-79.03
-89.61
-100.08
-108.06
-110.84
-106.18
-93.17
-72.67
-47.05
-19.47
7.04
30.30
49.18
63.30
72.75
77.60
77.98
74.21
66.99
57.52
47.34
38.05
30.89
26.44
24.60
24.67
25.67
26.68
27.12
26.83
25.86
24.37
22.31
19.46
15.43
9.96
3.02
-5.07
-13.70
-22.19
-30.00
-36.90
-42.96
-48.54
-54.13
-60.36
-67.84
-77.16
-88.48
-101.22
-113.73
-123.42
-127.25
-122.72
-108.77
-86.24
-57.72
-26.71
3.37
30.03
51.94
68.83
80.91
88.50
91.87
91.31
87.30
80.65
72.44
63.82
55.84
49.27
44.49
41.56
40.23
40.00
40.22
40.19
39.27
37.02
33.32
28.32
22.35
15.71
8.62
1.06
-7.07
-15.84
-25.15
-34.72
-44.14
-53.07
-61.33
-69.05
-76.63
-84.78
-94.31
-105.95
-119.82
-135.02
-149.28
-159.31
-161.57
-153.48
-134.42
-106.00
-71.58
-35.18
-0.35
30.55
56.46
77.21
93.09
104.48
111.74
115.28
115.62
113.36
109.13
103.53
97.05
90.21
83.48
77.39
72.47
69.08
67.32
66.80
66.72
66.00
63.61
58.92
51.98
43.41
34.18
25.14
16.77
8.93
1.10
-7.40
-16.95
-27.50
-38.57
-49.45
-59.53
-68.54
-76.67
-84.51
-92.96
-103.03
-115.45
-130.15
-145.81
-159.69
-168.09
-167.36
-155.22
-131.63
-98.99
-61.36
-23.12
12.20
42.66
67.79
87.97
103.78
115.53
123.26
126.95
126.85
123.56
117.99
111.14
103.92
97.03
90.94
85.92
82.13
79.58
78.13
77.44
77.03
76.27
74.56
71.47
66.78
60.53
52.96
44.43
35.39
26.30
17.56
9.45
2.11
-4.65
-11.22
-18.15
-25.90
-34.67
-44.25
-54.05
-63.37
-71.62
-78.61
-84.65
-90.46
-97.10
-105.64
-116.85
-130.73
-146.06
-160.28
-169.80
-170.92
-161.04
-139.60
-108.40
-71.10
-32.00
5.15
37.86
65.05
86.61
102.84
114.07
120.62
122.90
121.53
117.42
111.60
105.12
98.83
93.31
88.81
85.33
82.78
81.07
80.19
80.07
80.39
80.56
79.74
77.16
72.46
65.91
58.26
50.46
43.22
36.73
30.66
24.42
17.54
9.87
1.70
-6.45
-14.12
-21.15
-27.73
-34.31
-41.37
-49.15
-57.54
-66.12
-74.34
-81.70
-87.92
-93.18
-98.00
-103.27
-110.06
-119.23
-130.87
-143.88
-155.72
-162.84
-161.70
-149.92
-127.23
-95.67
-58.95
-21.31
13.69
43.81
68.18
86.90
100.43
109.23
113.66
114.13
111.26
105.92
99.15
91.99
85.30
79.60
75.10
71.76
69.45
68.05
67.47
67.54
67.86
67.88
66.90
64.34
60.01
54.19
47.54
40.90
34.92
29.86
25.46
21.09
16.08
9.99
2.89
-4.69
-12.00
-18.44
-23.82
-28.53
-33.30
-38.89
-45.67
-53.45
-61.60
-69.27
-75.84
-81.12
-85.45
-89.58
-94.48
-101.07
-109.93
-120.96
-132.96
-143.59
-149.60
-147.70
-135.63
-113.06
-81.91
-45.85
-9.14
24.48
52.70
74.68
90.66
101.29
107.19
108.81
106.59
101.17
93.55
84.88
76.29
68.69
62.61
58.23
55.51
54.25
54.18
54.86
55.77
56.33
56.02
54.47
51.63
47.59
42.60
36.95
30.85
24.49
18.05
11.68
5.56
-0.21
-5.61
-10.77
-15.88
-21.23
-27.01
-33.28
-39.88
-46.47
-52.60
-57.92
-62.36
-66.18
-69.98
-74.54
-80.67
-88.88
-99.15
-110.53
-121.04
-127.94
-128.38
-120.31
-103.27
-78.66
-49.35
-18.75
10.13
35.30
55.85
71.61
82.62
88.92
90.61
88.01
81.95
73.71
64.77
56.44
49.61
44.63
41.36
39.43
38.49
38.31
38.76
39.60
40.35
40.32
38.75
35.17
29.59
22.60
15.15
8.17
2.27
-2.49
-6.51
-10.42
-14.81
-19.95
-25.70
-31.66
-37.29
-42.25
-46.54
-50.59
-55.16
-61.06
-68.88
-78.64
-89.49
-99.66
-106.76
-108.26
-102.33
-88.41
-67.48
-41.89
-14.64
11.38
34.03
52.11
65.28
73.58
77.18
76.28
71.23
62.82
52.32
41.38
31.68
24.55
20.59
19.57
20.62
22.59
24.40
25.39
25.29
24.11
21.99
19.00
15.10
10.29
4.58
-1.89
-8.86
-16.03
-23.07
-29.73
-35.81
-41.34
-46.43
-51.44
-56.81
-63.11
-70.86
-80.36
-91.41
-102.92
-112.90
-118.68
-117.70
-108.33
-90.57
-66.16
-38.04
-9.49
16.79
39.08
56.69
69.53
77.72
81.42
80.89
76.62
69.49
60.70
51.58
43.33
36.80
32.44
30.26
29.88
30.69
31.94
32.89
32.93
31.67
29.00
25.08
20.15
14.46
8.08
0.98
-6.90
-15.44
-24.34
-33.13
-41.38
-48.90
-55.85
-62.63
-69.86
-78.17
-88.15
-100.15
-113.97
-128.50
-141.56
-150.10
-150.94
-141.86
-122.45
-94.40
-61.04
-26.25
6.56
35.22
58.81
77.38
91.36
101.17
107.13
109.51
108.65
105.10
99.58
92.95
86.03
79.50
73.83
69.22
65.62
62.82
60.53
58.36
55.89
52.74
48.51
43.04
36.36
28.70
20.39
11.70
2.72
-6.57
-16.23
-26.18
-36.12
-45.65
-54.44
-62.47
-70.17
-78.33
-87.96
-99.95
-114.57
-131.04
-147.25
-159.97
-165.51
-160.88
-144.77
-118.13
-83.94
-46.25
-8.98
24.95
54.07
78.03
97.07
111.53
121.61
127.43
129.24
127.56
123.21
117.14
110.28
103.34
96.77
90.78
85.54
81.25
78.16
76.33
75.52
75.01
73.79
70.80
65.43
57.70
48.33
38.39
28.91
20.43
12.82
5.36
-2.79
-12.25
-23.06
-34.66
-46.13
-56.57
-65.45
-72.89
-79.62
-86.86
-95.94
-107.85
-122.71
-139.33
-155.03
-166.09
-168.70
-160.11
-139.71
-109.22
-72.23
-33.07
4.44
37.68
65.45
87.50
104.12
115.65
122.40
124.75
123.31
118.89
112.52
105.26
98.08
91.73
86.64
83.01
80.72
79.50
78.98
78.74
78.34
77.35
75.37
72.11
67.45
61.40
54.23
46.26
37.83
29.25
20.76
12.57
4.85
-2.29
-8.88
-15.15
-21.43
-28.12
-35.46
-43.41
-51.67
-59.79
-67.34
-74.11
-80.21
-86.12
-92.61
-100.59
-110.83
-123.58
-138.07
-152.30
-163.08
-166.80
-160.49
-142.92
-115.08
-80.01
-41.84
-4.57
28.84
56.84
79.08
95.83
107.50
114.44
116.95
115.53
110.94
104.23
96.54
88.92
82.21
76.90
73.18
70.98
70.07
70.06
70.52
70.92
70.72
69.48
66.87
62.80
57.42
51.05
44.05
36.75
29.33
21.87
14.42
7.05
-0.09
-6.87
-13.23
-19.29
-25.33
-31.66
-38.46
-45.64
-52.89
-59.79
-66.03
-71.53
-76.54
-81.60
-87.45
-94.88
-104.47
-116.23
-129.14
-141.06
-148.93
-149.54
-140.56
-121.39
-93.50
-60.00
-24.68
8.99
38.61
63.00
81.89
95.55
104.32
108.55
108.64
105.17
99.01
91.29
83.26
76.05
70.40
66.59
64.43
63.44
63.08
62.94
62.73
62.25
61.27
59.48
56.58
52.43
47.09
40.82
34.00
27.00
20.12
13.53
7.30
1.41
-4.28
-10.03
-16.12
-22.76
-30.03
-37.77
-45.61
-53.07
-59.74
-65.45
-70.29
-74.66
-79.21
-84.72
-91.91
-101.19
-112.21
-123.57
-132.80
-136.90
-133.17
-120.21
-98.50
-70.30
-38.96
-7.84
20.48
44.53
63.77
78.16
87.75
92.62
92.97
89.39
82.90
74.86
66.62
59.33
53.64
49.73
47.42
46.34
46.11
46.38
46.85
47.22
47.07
45.94
43.43
39.32
33.70
27.07
20.14
13.72
8.39
4.31
1.12
-1.95
-5.71
-10.67
-16.89
-23.86
-30.86
-37.24
-42.78
-47.70
-52.62
-58.29
-65.38
-74.20
-84.52
-95.40
-105.09
-111.30
-111.68
-104.59
-89.64
-67.99
-42.01
-14.67
11.31
33.98
52.29
65.86
74.64
78.66
78.06
73.27
65.21
55.25
44.97
35.85
28.88
24.42
22.29
21.93
22.70
23.98
25.27
26.09
26.00
24.68
22.02
18.20
13.68
8.97
4.48
0.24
-3.99
-8.66
-14.08
-20.33
-27.13
-34.00
-40.45
-46.24
-51.51
-56.75
-62.70
-70.15
-79.55
-90.65
-102.20
-112.02
-117.34
-115.69
-105.66
-87.50
-63.11
-35.47
-7.74
17.53
38.80
55.46
67.49
75.02
78.12
76.90
71.82
63.74
54.04
44.32
35.99
30.00
26.62
25.50
25.97
27.19
28.42
29.07
28.71
27.10
24.16
20.03
15.03
9.52
3.79
-2.04
-8.03
-14.28
-20.80
-27.51
-34.17
-40.51
-46.43
-52.04
-57.72
-64.05
-71.70
-81.23
-92.77
-105.65
-118.26
-128.04
-132.08
-127.96
-114.60
-92.75
-64.82
-34.15
-4.04
23.02
45.67
63.49
76.54
85.06
89.28
89.55
86.49
80.97
74.06
66.77
59.95
54.14
49.63
46.53
44.82
44.32
44.69
45.42
45.76
44.91
42.23
37.44
30.74
22.73
14.24
5.96
-1.79
-9.14
-16.51
-24.33
-32.79
-41.71
-50.60
-58.89
-66.20
-72.56
-78.41
-84.62
-92.32
-102.46
-115.31
-130.02
-144.33
-154.86
-158.03
-151.15
-133.48
-106.51
-73.50
-38.39
-4.70
25.29
50.63
71.32
87.77
100.33
109.16
114.33
116.02
114.63
110.81
105.38
99.17
92.83
86.82
81.37
76.65
72.78
69.91
68.09
67.15
66.57
65.55
63.24
58.95
52.46
44.09
34.61
24.93
15.85
7.72
0.42
-6.63
-14.16
-22.72
-32.45
-43.02
-53.70
-63.68
-72.43
-79.83
-86.33
-92.88
-100.65
-110.73
-123.70
-139.12
-155.21
-168.88
-176.38
-174.36
-160.92
-136.39
-103.20
-65.19
-26.36
10.01
41.93
68.65
90.22
107.00
119.43
127.84
132.52
133.82
132.14
128.02
122.09
115.09
107.75
100.83
94.96
90.60
87.96
86.88
86.88
87.21
87.04
85.66
82.67
78.05
72.05
65.07
57.51
49.67
41.68
33.55
25.25
16.80
8.31
-0.11
-8.32
-16.35
-24.37
-32.63
-41.35
-50.56
-60.10
-69.54
-78.42
-86.36
-93.34
-99.78
-106.54
-114.76
-125.43
-138.74
-153.60
-167.43
-176.58
-177.37
-167.27
-145.77
-114.64
-77.29
-37.78
0.30
34.47
63.41
86.73
104.53
117.17
125.05
128.69
128.72
125.84
120.83
114.45
107.44
100.44
94.00
88.57
84.46
81.90
80.95
81.46
82.96
84.67
85.63
84.91
81.95
76.66
69.50
61.34
53.07
45.36
38.40
31.84
25.07
17.53
8.98
-0.26
-9.52
-18.06
-25.42
-31.69
-37.38
-43.20
-49.67
-56.94
-64.68
-72.36
-79.41
-85.54
-90.85
-95.89
-101.59
-108.97
-118.80
-131.11
-144.71
-157.13
-165.01
-164.98
-154.70
-133.68
-103.51
-67.40
-29.25
7.36
39.84
66.79
87.83
103.17
113.24
118.58
119.77
117.48
112.53
105.87
98.44
91.11
84.51
79.01
74.79
71.89
70.25
69.75
70.07
70.69
70.94
70.11
67.70
63.56
57.98
51.53
44.83
38.28
32.00
25.78
19.38
12.63
5.66
-1.25
-7.78
-13.77
-19.39
-25.02
-31.11
-37.99
-45.61
-53.66
-61.60
-68.87
-75.12
-80.40
-85.15
-90.20
-96.53
-104.86
-115.30
-126.92
-137.66
-144.63
-144.84
-136.14
-117.93
-91.49
-59.60
-25.75
6.78
35.57
59.33
77.67
90.74
98.86
102.37
101.73
97.57
90.87
82.81
74.57
67.17
61.26
57.06
54.51
53.34
53.21
53.76
54.58
55.24
55.29
54.32
52.03
48.28
43.14
36.84
29.81
22.55
15.58
9.27
3.74
-1.19
-5.91
-10.87
-16.36
-22.44
-28.85
-35.14
-40.82
-45.59
-49.46
-52.82
-56.32
-60.74
-66.82
-74.99
-85.15
-96.41
-107.03
-114.71
-116.99
-112.05
-99.25
-79.37
-54.45
-27.18
-0.20
24.35
45.08
61.26
72.60
79.04
80.76
78.18
72.08
63.63
54.25
45.37
38.11
33.06
30.18
29.05
29.11
29.89
31.12
32.55
33.79
34.19
33.12
30.15
25.35
19.33
12.92
6.89
1.59
-3.13
-7.72
-12.71
-18.44
-24.90
-31.72
-38.39
-44.45
-49.73
-54.42
-59.05
-64.36
-71.00
-79.31
-89.02
-99.11
-107.84
-112.97
-112.30
-104.33
-88.77
-66.74
-40.58
-13.14
12.89
35.55
53.79
67.25
75.98
80.11
79.93
75.85
68.65
59.47
49.67
40.60
33.34
28.48
26.04
25.59
26.47
27.93
29.31
30.04
29.67
27.86
24.49
19.68
13.82
7.42
0.96
-5.32
-11.44
-17.62
-24.07
-30.85
-37.78
-44.49
-50.68
-56.33
-61.68
-67.33
-74.04
-82.49
-92.90
-104.73
-116.40
-125.49
-129.17
-125.07
-112.07
-90.72
-63.20
-32.64
-2.25
25.41
48.82
67.34
80.95
89.80
94.15
94.34
90.98
84.92
77.29
69.19
61.55
54.95
49.62
45.55
42.62
40.72
39.74
39.42
39.30
38.76
37.14
33.98
29.23
23.25
16.62
9.91
3.43
-2.89
-9.42
-16.59
-24.67
-33.55
-42.81
-51.84
-60.12
-67.43
-74.05
-80.76
-88.62
-98.70
-111.45
-126.20
-140.86
-152.26
-156.86
-151.90
-136.39
-111.42
-79.88
-45.42
-11.50
19.38
45.92
67.74
85.01
98.05
107.14
112.47
114.28
112.89
108.81
102.77
95.66
88.44
81.85
76.37
72.13
69.00
66.78
65.25
64.23
63.47
62.58
60.97
58.02
53.22
46.42
38.00
28.73
19.59
11.37
4.30
-2.00
-8.37
-15.72
-24.51
-34.61
-45.30
-55.59
-64.70
-72.35
-78.79
-84.74
-91.16
-99.08
-109.37
-122.36
-137.47
-152.82
-165.30
-171.20
-167.32
-152.10
-126.23
-92.51
-54.90
-17.34
17.20
47.08
71.76
91.33
106.09
116.34
122.39
124.71
123.91
120.67
115.66
109.48
102.74
96.03
89.96
85.08
81.72
79.92
79.42
79.68
79.99
79.69
78.20
75.21
70.64
64.65
57.59
49.88
41.87
33.85
25.93
18.11
10.37
2.65
-5.12
-13.07
-21.40
-30.32
-39.90
-49.96
-60.06
-69.63
-78.20
-85.61
-92.12
-98.40
-105.39
-114.13
-125.37
-139.10
-154.18
-168.06
-177.23
-178.04
-167.82
-145.90
-113.88
-75.24
-34.30
4.98
39.74
68.58
91.19
107.93
119.34
125.96
128.31
126.96
122.69
116.38
108.98
101.34
94.16
87.87
82.77
78.98
76.52
75.25
74.87
74.89
74.72
73.77
71.58
67.88
62.65
56.06
48.47
40.29
31.91
23.67
15.77
8.29
1.21
-5.57
-12.28
-19.17
-26.53
-34.48
-42.91
-51.47
-59.65
-66.99
-73.27
-78.68
-83.82
-89.56
-96.89
-106.58
-118.83
-132.79
-146.39
-156.47
-159.53
-152.70
-134.83
-107.01
-72.23
-34.52
2.24
35.24
62.99
85.08
101.66
112.96
119.17
120.52
117.53
111.16
102.68
93.55
85.01
77.90
72.49
68.63
65.92
64.03
62.72
61.92
61.51
61.22
60.53
58.85
55.66
50.73
44.19
36.56
28.55
20.85
13.89
7.70
1.90
-4.10
-10.87
-18.66
-27.24
-36.06
-44.40
-51.78
-58.06
-63.54
-68.82
-74.64
-81.74
-90.71
-101.74
-114.25
-126.62
-136.23
-140.01
-135.31
-120.85
-97.29
-67.08
-33.70
-0.72
29.06
53.94
73.23
86.88
95.11
98.28
96.93
91.76
83.76
74.07
63.93
54.44
46.49
40.58
36.85
35.12
34.94
35.77
36.95
37.81
37.71
36.17
33.02
28.47
23.03
17.28
11.65
6.25
0.85
-4.86
-11.05
-17.66
-24.38
-30.87
-36.87
-42.37
-47.61
-53.07
-59.36
-67.10
-76.61
-87.52
-98.49
-107.21
-110.92
-107.23
-95.04
-75.02
-49.47
-21.53
5.71
30.00
50.11
65.56
76.22
81.98
82.77
78.81
70.84
60.18
48.54
37.64
28.81
22.78
19.55
18.56
18.86
19.51
19.74
19.18
17.81
15.80
13.31
10.28
6.50
1.66
-4.37
-11.43
-19.01
-26.44
-33.14
-38.83
-43.63
-47.97
-52.46
-57.75
-64.43
-72.97
-83.45
-95.36
-107.23
-116.65
-120.74
-116.98
-104.08
-82.63
-54.96
-24.45
5.48
32.20
54.28
71.29
83.38
90.75
93.53
91.82
86.05
77.12
66.41
55.57
46.11
39.05
34.67
32.63
32.13
32.31
32.43
32.00
30.78
28.68
25.68
21.79
17.02
11.39
4.89
-2.43
-10.44
-18.90
-27.46
-35.77
-43.53
-50.68
-57.37
-64.00
-71.11
-79.40
-89.51
-101.78
-115.74
-129.77
-141.08
-146.31
-142.50
-128.22
-104.13
-72.92
-38.37
-4.27
26.50
52.34
72.77
87.94
98.27
104.19
106.18
104.78
100.63
94.46
87.04
79.19
71.64
65.02
59.76
56.02
53.69
52.38
51.56
50.59
48.88
46.01
41.81
36.41
30.11
23.28
16.13
8.66
0.73
-7.79
-16.86
-26.22
-35.47
-44.24
-52.32
-59.84
-67.22
-75.16
-84.55
-96.11
-110.01
-125.34
-139.86
-150.22
-152.85
-145.08
-126.18
-97.75
-63.23
-26.78
7.87
38.27
63.32
82.92
97.40
107.10
112.32
113.45
111.11
106.17
99.58
92.24
84.83
77.81
71.44
65.95
61.54
58.39
56.49
55.56
54.94
53.77
51.21
46.73
40.38
32.75
24.69
17.01
10.04
3.55
-3.02
-10.30
-18.52
-27.42
-36.39
-44.73
-52.04
-58.42
-64.45
-71.08
-79.33
-90.03
-103.37
-118.52
-133.39
-144.83
-149.29
-143.94
-127.68
-101.60
-68.77
-33.19
1.34
32.11
57.76
77.96
92.92
102.92
108.19
109.08
106.17
100.42
93.02
85.16
77.78
71.44
66.31
62.31
59.33
57.31
56.25
56.04
56.35
56.46
55.45
52.52
47.27
40.00
31.54
22.99
15.22
8.48
2.39
-3.90
-11.20
-19.91
-29.81
-40.13
-49.93
-58.45
-65.43
-71.20
-76.59
-82.71
-90.66
-101.15
-114.00
-127.79
-139.79
-146.46
-144.47
-131.84
-108.75
-77.55
-42.08
-6.40
26.21
53.84
75.78
92.04
102.87
108.49
109.22
105.73
99.07
90.65
81.87
73.90
67.41
62.61
59.38
57.44
56.50
56.31
56.67
57.23
57.52
56.91
54.76
50.63
44.48
36.75
28.28
19.98
12.55
6.15
0.33
-5.70
-12.67
-20.89
-30.05
-39.35
-47.90
-55.12
-60.98
-66.04
-71.19
-77.46
-85.68
-96.18
-108.53
-121.22
-131.78
-137.15
-134.53
-122.34
-100.83
-72.16
-39.74
-7.24
22.38
47.35
67.03
81.46
90.88
95.55
95.72
91.90
84.99
76.21
66.95
58.47
51.66
46.93
44.26
43.28
43.45
44.10
44.60
44.36
42.92
40.06
35.77
30.33
24.16
17.68
11.25
5.01
-1.03
-6.97
-12.88
-18.75
-24.50
-30.01
-35.24
-40.32
-45.58
-51.49
-58.60
-67.35
-77.78
-89.26
-100.28
-108.50
-111.25
-106.28
-92.58
-70.87
-43.48
-13.64
15.38
41.05
61.90
77.31
87.19
91.63
90.91
85.56
76.61
65.52
53.94
43.44
35.11
29.41
26.23
25.04
25.18
25.98
26.84
27.21
26.57
24.55
21.02
16.19
10.51
4.49
-1.48
-7.36
-13.34
-19.69
-26.53
-33.74
-40.99
-47.88
-54.13
-59.71
-64.86
-70.15
-76.42
-84.56
-95.19
-108.08
-121.74
-133.46
-139.77
-137.57
-125.12
-102.77
-72.84
-38.93
-4.83
26.34
52.68
73.35
88.35
98.02
102.87
103.44
100.39
94.52
86.77
78.18
69.75
62.29
56.28
51.88
48.97
47.33
46.62
46.44
46.30
45.56
43.57
39.89
34.44
27.61
20.09
12.64
5.75
-0.54
-6.59
-12.98
-20.14
-28.15
-36.65
-45.04
-52.79
-59.68
-65.97
-72.36
-79.81
-89.28
-101.24
-115.32
-129.88
-142.10
-148.48
-145.84
-132.44
-108.72
-77.26
-42.01
-7.07
24.40
50.66
71.27
86.49
96.77
102.45
103.85
101.50
96.21
89.11
81.33
73.85
67.29
61.98
58.01
55.38
53.98
53.54
53.59
53.41
52.26
49.51
44.93
38.72
31.47
23.86
16.47
9.41
2.48
-4.76
-12.68
-21.31
-30.31
-39.11
-47.23
-54.48
-61.13
-67.79
-75.25
-84.25
-95.19
-107.80
-120.84
-132.04
-138.39
-136.92
-125.73
-104.70
-75.78
-42.40
-8.48
22.73
49.27
70.46
86.43
97.51
103.88
105.61
103.04
96.95
88.72
79.95
72.07
65.93
61.66
58.86
57.00
55.69
54.75
54.12
53.56
52.54
50.36
46.44
40.60
33.27
25.25
17.40
10.28
3.95
-2.00
-8.17
-15.03
-22.72
-30.98
-39.29
-47.11
-54.13
-60.48
-66.69
-73.66
-82.35
-93.39
-106.66
-120.93
-133.85
-142.27
-143.13
-134.32
-115.47
-88.14
-55.42
-21.01
11.74
40.49
64.05
82.11
94.78
102.24
104.75
102.75
97.07
88.96
79.89
71.24
64.05
58.81
55.54
53.96
53.57
53.81
54.11
53.90
52.64
49.97
45.76
40.15
33.52
26.33
19.05
11.90
4.97
-1.90
-8.86
-16.05
-23.40
-30.69
-37.62
-43.97
-49.75
-55.32
-61.34
-68.60
-77.68
-88.52
-100.07
-110.28
-116.41
-115.75
-106.53
-88.59
-63.51
-34.20
-4.02
24.13
48.31
67.60
81.70
90.57
94.20
92.75
86.76
77.39
66.30
55.39
46.28
39.96
36.61
35.68
36.26
37.30
37.97
37.73
36.36
33.88
30.44
26.18
21.21
15.56
9.25
2.39
-4.83
-12.05
-18.90
-25.11
-30.65
-35.72
-40.73
-46.11
-52.30
-59.67
-68.42
-78.48
-89.21
-99.23
-106.48
-108.58
-103.51
-90.39
-69.84
-43.93
-15.60
12.15
36.97
57.42
72.86
83.09
88.08
87.90
82.93
74.05
62.78
50.98
40.53
32.76
28.23
26.63
27.10
28.54
29.97
30.72
30.46
29.09
26.71
23.37
19.15
14.02
7.98
1.05
-6.59
-14.62
-22.57
-30.06
-36.88
-43.10
-49.08
-55.37
-62.57
-71.23
-81.73
-93.98
-107.20
-119.68
-128.96
-132.23
-127.18
-112.82
-89.94
-60.88
-28.91
2.71
31.44
55.74
74.95
88.91
97.70
101.44
100.48
95.43
87.30
77.44
67.28
58.14
50.96
46.12
43.45
42.34
41.98
41.55
40.47
38.41
35.30
31.20
26.22
20.46
13.93
6.62
-1.43
-10.10
-19.13
-28.11
-36.67
-44.50
-51.58
-58.10
-64.54
-71.54
-79.85
-90.13
-102.64
-116.81
-130.97
-142.40
-147.85
-144.47
-130.84
-107.51
-76.89
-42.50
-7.96
23.92
51.43
73.90
91.31
103.84
111.75
115.34
115.08
111.67
105.98
98.93
91.35
83.86
76.90
70.78
65.74
61.97
59.50
58.11
57.24
56.09
53.83
49.80
43.81
36.19
27.61
18.91
10.68
3.18
-3.84
-10.96
-18.78
-27.67
-37.57
-47.98
-58.15
-67.39
-75.43
-82.47
-89.31
-97.09
-106.89
-119.25
-133.54
-147.79
-158.81
-163.00
-157.40
-140.72
-113.86
-79.66
-42.06
-4.94
28.73
57.35
80.50
98.48
111.76
120.71
125.50
126.34
123.61
118.04
110.65
102.56
94.75
87.91
82.34
78.11
75.11
73.14
71.94
71.11
70.16
68.56
65.82
61.65
55.94
48.78
40.44
31.34
21.98
12.90
4.51
-3.01
-9.82
-16.39
-23.31
-31.08
-39.86
-49.40
-59.11
-68.29
-76.39
-83.23
-89.06
-94.57
-100.70
-108.45
-118.49
-130.80
-144.29
-156.73
-165.00
-165.81
-156.65
-136.67
-107.04
-70.71
-31.58
6.49
40.58
69.02
91.31
107.67
118.62
124.69
126.41
124.38
119.37
112.36
104.37
96.40
89.18
83.13
78.41
74.96
72.60
71.10
70.12
69.25
68.01
65.90
62.61
58.04
52.31
45.69
38.49
30.95
23.29
15.68
8.25
1.12
-5.67
-12.20
-18.68
-25.32
-32.33
-39.73
-47.34
-54.87
-61.92
-68.22
-73.67
-78.45
-83.03
-88.16
-94.71
-103.50
-114.79
-127.88
-140.88
-150.83
-154.39
-148.80
-132.81
-107.14
-74.35
-38.02
-1.87
31.09
58.98
81.01
97.18
107.90
113.71
115.15
112.83
107.53
100.18
91.90
83.82
76.82
71.38
67.58
65.15
63.72
62.94
62.52
62.19
61.60
60.34
58.00
54.30
49.20
42.91
35.84
28.43
21.11
14.16
7.66
1.60
-4.23
-10.04
-16.09
-22.56
-29.51
-36.81
-44.19
-51.26
-57.65
-63.14
-67.74
-71.82
-76.03
-81.22
-88.18
-97.33
-108.33
-119.78
-129.33
-134.06
-131.34
-119.64
-99.08
-71.53
-40.04
-8.00
21.70
47.14
67.42
82.34
92.01
96.70
96.75
92.78
85.77
77.03
67.95
59.69
52.94
47.89
44.37
42.05
40.73
40.27
40.51
41.09
41.38
40.55
37.91
33.18
26.66
19.11
11.53
4.73
-0.96
-5.77
-10.31
-15.22
-20.89
-27.31
-34.08
-40.66
-46.58
-51.62
-55.92
-59.99
-64.59
-70.57
-78.50
-88.34
-99.10
-108.81
-114.80
-114.51
-106.18
-89.57
-66.00
-37.99
-8.55
19.57
44.26
64.26
78.89
87.97
91.60
90.28
84.85
76.48
66.56
56.47
47.37
40.01
34.72
31.39
29.68
29.09
29.16
29.51
29.79
29.69
28.78
26.65
22.96
17.63
10.99
3.68
-3.45
-9.77
-15.08
-19.73
-24.44
-29.98
-36.75
-44.62
-52.96
-60.98
-68.06
-74.05
-79.38
-84.88
-91.61
-100.40
-111.48
-123.99
-135.87
-144.17
-145.73
-138.22
-120.93
-95.08
-63.42
-29.44
3.60
33.28
58.24
77.93
92.33
101.65
106.24
106.59
103.37
97.47
89.91
81.73
73.85
66.91
61.21
56.73
53.34
50.86
49.25
48.43
48.17
47.94
46.99
44.48
39.96
33.46
25.61
17.36
9.57
2.72
-3.35
-9.23
-15.69
-23.26
-32.04
-41.60
-51.22
-60.15
-67.95
-74.65
-80.82
-87.45
-95.65
-106.23
-119.25
-133.61
-146.92
-155.93
-157.30
-148.72
-129.70
-101.78
-68.09
-32.42
1.84
32.36
57.97
78.38
93.74
104.26
110.16
111.76
109.62
104.60
97.78
90.23
82.81
76.11
70.38
65.72
62.16
59.76
58.53
58.29
58.58
58.62
57.53
54.60
49.51
42.53
34.28
25.68
17.48
10.13
3.51
-2.93
-9.92
-18.04
-27.42
-37.65
-47.93
-57.42
-65.62
-72.59
-78.98
-85.81
-94.21
-104.99
-118.28
-133.10
-147.28
-157.67
-160.87
-154.25
-136.81
-109.68
-75.77
-38.93
-2.86
29.70
57.27
79.39
96.21
107.97
114.85
117.12
115.22
110.01
102.69
94.56
86.81
80.20
75.01
71.16
68.38
66.41
65.15
64.47
64.18
63.82
62.68
60.05
55.42
48.74
40.49
31.55
22.85
15.08
8.44
2.51
-3.45
-10.25
-18.37
-27.79
-37.93
-47.86
-56.68
-63.88
-69.52
-74.30
-79.37
-86.01
-95.25
-107.47
-122.01
-136.97
-149.40
-155.80
-153.12
-139.65
-115.71
-83.61
-47.02
-9.89
24.52
54.16
78.13
96.28
108.70
115.55
117.12
114.03
107.39
98.66
89.40
80.84
73.73
68.30
64.46
62.00
60.78
60.61
61.26
62.19
62.71
61.99
59.41
54.68
48.05
40.18
31.96
24.12
16.99
10.40
3.78
-3.50
-11.74
-20.84
-30.20
-39.06
-46.85
-53.45
-59.26
-65.12
-72.08
-80.99
-92.23
-105.37
-118.86
-130.20
-136.35
-134.54
-123.19
-102.48
-74.35
-41.99
-8.91
21.93
48.60
70.15
86.31
97.04
102.35
102.42
97.78
89.55
79.31
68.81
59.61
52.75
48.56
46.82
46.87
47.89
49.07
49.72
49.33
47.63
44.56
40.22
34.79
28.44
21.29
13.46
5.16
-3.26
-11.39
-18.89
-25.62
-31.74
-37.63
-43.71
-50.41
-58.12
-67.12
-77.63
-89.54
-102.02
-113.39
-121.11
-122.42
-115.22
-98.85
-74.48
-44.78
-13.11
17.35
44.32
66.45
83.19
94.35
99.90
100.05
95.36
86.97
76.47
65.66
56.08
48.76
44.05
41.70
41.15
41.65
42.51
43.07
42.77
41.13
37.85
32.93
26.63
19.42
11.85
4.33
-2.92
-9.97
-17.01
-24.24
-31.76
-39.44
-47.04
-54.31
-61.15
-67.74
-74.61
-82.54
-92.31
-104.36
-118.28
-132.51
-144.35
-150.49
-147.93
-135.00
-112.00
-81.30
-46.51
-11.56
20.42
47.57
69.27
85.68
97.23
104.28
107.13
106.21
102.20
96.08
88.91
81.68
75.06
69.44
64.97
61.69
59.59
58.56
58.32
58.31
57.79
55.98
52.32
46.66
39.30
30.95
22.41
14.33
6.92
-0.09
-7.25
-15.13
-23.91
-33.30
-42.57
-50.98
-58.10
-64.11
-69.78
-76.26
-84.68
-95.68
-109.04
-123.40
-136.30
-144.58
-145.16
-135.91
-116.47
-88.51
-55.24
-20.58
11.96
40.05
62.72
80.00
92.40
100.39
104.25
104.22
100.81
94.86
87.57
80.16
73.60
68.39
64.56
61.88
60.04
58.87
58.26
58.07
57.94
57.20
55.08
50.98
44.77
36.91
28.33
20.05
12.77
6.59
1.02
-4.73
-11.35
-19.05
-27.52
-36.09
-44.05
-50.98
-56.93
-62.44
-68.34
-75.57
-84.86
-96.34
-109.22
-121.64
-130.81
-133.71
-127.97
-112.78
-89.22
-60.03
-28.74
1.39
28.05
50.17
67.53
80.31
88.66
92.62
92.34
88.34
81.59
73.40
65.12
57.85
52.22
48.45
46.42
45.84
46.28
47.25
48.12
48.28
47.20
44.58
40.43
35.06
28.86
22.29
15.59
8.91
2.21
-4.54
-11.36
-18.18
-24.88
-31.29
-37.36
-43.18
-49.03
-55.39
-62.81
-71.67
-81.88
-92.65
-102.38
-108.83
-109.70
-103.28
-89.08
-68.06
-42.44
-15.05
11.39
34.82
54.04
68.55
78.19
82.98
83.02
78.67
70.79
60.77
50.33
41.14
34.40
30.56
29.35
29.97
31.48
33.04
33.97
33.84
32.38
29.49
25.29
20.11
14.39
8.56
2.87
-2.69
-8.32
-14.23
-20.50
-27.03
-33.54
-39.76
-45.53
-50.94
-56.36
-62.34
-69.55
-78.49
-89.16
-100.73
-111.43
-118.77
-120.10
-113.46
-98.26
-75.62
-48.04
-18.70
9.39
34.03
54.06
69.15
79.38
84.95
86.07
83.06
76.55
67.66
57.76
48.36
40.72
35.54
32.95
32.53
33.53
35.08
36.36
36.73
35.81
33.43
29.65
24.67
18.77
12.20
5.23
-1.99
-9.34
-16.75
-24.14
-31.47
-38.63
-45.53
-52.09
-58.38
-64.61
-71.28
-79.04
-88.47
-99.72
-111.97
-123.31
-130.95
-131.93
-124.13
-107.07
-82.12
-52.13
-20.51
9.74
36.57
59.02
76.83
90.01
98.55
102.43
101.83
97.32
89.93
81.06
72.12
64.30
58.23
54.03
51.39
49.90
49.19
49.03
49.27
49.57
49.39
47.95
44.59
39.00
31.48
22.87
14.23
6.45
-0.14
-5.89
-11.58
-18.08
-25.91
-35.02
-44.81
-54.41
-63.02
-70.25
-76.28
-81.78
-87.77
-95.28
-105.11
-117.42
-131.44
-145.27
-156.04
-160.48
-155.85
-140.87
-116.25
-84.57
-49.48
-14.71
16.91
43.82
65.67
82.85
95.96
105.47
111.61
114.52
114.35
111.44
106.40
100.03
93.24
86.84
81.43
77.35
74.68
73.25
72.74
72.63
