1523257806.00
64.000000
-0.00
-0.00
-0.00
-0.00
-0.00
-0.00
-0.00
-0.00
-0.00
-0.00
0.00
0.01
0.01
-0.00
-0.03
-0.05
-0.05
0.00
0.13
0.36
0.66
1.01
1.37
1.72
2.06
2.40
2.79
3.24
3.80
4.42
5.06
5.66
6.20
6.68
7.15
7.68
8.31
9.14
10.09
11.04
11.88
12.56
13.14
13.76
14.65
15.96
17.91
20.32
22.90
25.38
27.58
29.57
31.68
34.32
37.81
42.54
48.15
54.10
59.83
64.97
69.58
74.14
79.34
85.71
93.76
103.00
112.62
121.73
129.77
136.75
143.30
150.75
157.77
166.64
177.95
191.79
206.97
220.57
228.25
225.36
208.53
176.87
132.76
80.05
23.07
-34.94
-92.44
-149.16
-205.23
-260.37
-313.74
-363.87
-409.82
-450.88
-486.46
-515.68
-537.14
-549.10
-549.80
-538.16
-513.95
-478.36
-433.51
-382.02
-326.52
-269.27
-212.00
-155.95
-102.17
-51.51
-4.96
36.61
72.55
102.58
126.84
145.84
160.29
170.89
178.28
182.85
184.88
184.61
182.30
178.32
173.06
166.94
160.30
153.39
146.36
139.27
132.17
125.11
118.13
111.32
104.75
98.47
92.52
86.90
81.63
76.72
72.18
68.02
64.23
60.84
57.84
55.23
53.01
51.18
49.71
48.57
47.70
47.02
46.39
45.68
44.69
43.26
41.23
38.45
34.87
30.47
25.28
19.44
13.13
6.60
0.13
-6.03
-11.62
-16.42
-20.31
-23.20
-25.06
-25.96
-26.00
-25.32
-24.05
-22.35
-20.35
-18.16
-15.85
-13.45
-11.01
-8.54
-6.04
-3.51
-0.94
1.69
4.40
7.18
10.09
13.06
16.07
19.11
22.18
25.29
28.48
31.78
35.25
38.95
42.83
46.83
50.96
55.20
59.59
64.13
68.87
73.86
79.19
84.72
90.34
96.00
101.67
107.34
112.99
118.64
124.32
130.07
135.64
140.80
145.35
149.04
151.62
152.71
151.81
148.22
143.28
137.45
131.05
124.28
117.33
110.33
103.38
96.60
90.12
84.10
78.36
72.83
67.43
62.17
57.03
52.05
47.27
42.77
38.66
34.82
31.19
27.74
24.47
21.40
18.56
15.96
13.65
11.66
9.88
8.23
6.67
5.21
3.86
2.64
1.59
0.74
0.06
-0.53
-1.12
-1.75
-2.46
-3.25
-4.10
-5.00
-5.93
-6.94
-8.10
-9.43
-10.96
-12.61
-14.28
-15.83
-17.17
-18.33
-19.43
-20.69
-22.33
-24.46
-27.07
-29.99
-32.98
-35.89
-38.70
-41.66
-45.12
-49.41
-54.71
-60.88
-67.56
-74.27
-80.71
-86.88
-93.18
-100.25
-108.69
-118.83
-130.56
-143.40
-156.71
-169.96
-182.96
-195.86
-209.14
-223.44
-239.70
-258.88
-281.52
-307.11
-333.56
-357.27
-373.99
-380.33
-375.01
-359.45
-337.02
-311.79
-286.98
-264.32
-244.15
-226.10
-209.74
-194.71
-180.49
-166.17
-150.54
-132.55
-111.94
-89.46
-66.62
-45.19
-26.55
-11.34
0.56
9.80
17.17
23.39
28.87
33.75
37.95
41.38
43.97
45.82
47.13
48.12
48.97
49.72
50.25
50.40
49.96
48.79
46.74
43.81
40.06
35.78
31.34
27.18
23.57
20.52
17.75
14.78
11.09
6.31
0.41
-6.26
-12.90
-18.38
-21.49
-21.26
-17.27
-9.86
-0.07
10.72
21.14
30.30
37.79
43.61
47.89
50.78
52.37
52.75
52.15
50.93
49.50
48.18
47.10
46.19
45.22
43.99
42.40
40.50
38.46
36.44
34.51
32.51
30.16
27.18
23.40
19.00
14.44
10.26
6.86
4.29
2.20
-0.08
-3.21
-7.64
-13.34
-19.83
-26.17
-31.24
-33.93
-33.49
-29.66
-22.85
-14.02
-4.42
4.78
12.75
19.12
23.93
27.37
29.60
30.74
30.85
30.10
28.74
27.15
25.79
25.07
25.28
26.48
28.46
30.82
33.04
34.68
35.51
35.55
34.97
33.91
32.36
30.20
27.33
23.80
19.91
16.07
12.65
9.83
7.53
5.50
3.38
0.78
-2.57
-6.73
-11.41
-15.90
-19.17
-20.25
-18.50
-14.00
-7.50
-0.13
7.00
13.17
18.15
21.99
24.80
26.61
27.38
27.08
25.96
24.40
22.88
21.79
21.26
21.24
21.46
21.64
21.52
20.97
20.01
18.81
17.56
16.36
15.14
13.71
11.85
9.45
6.61
3.58
0.62
-2.10
-4.65
-7.27
-10.23
-13.70
-17.76
-22.26
-26.89
-31.12
-34.19
-35.27
-33.71
-29.24
-22.26
-13.64
-4.54
4.00
11.31
17.12
21.43
24.33
25.93
26.35
25.81
24.71
23.48
22.53
22.09
22.13
22.44
22.74
22.78
22.42
21.71
20.75
19.62
18.29
16.59
14.29
11.28
7.57
3.44
-0.75
-4.68
-8.17
-11.26
-14.14
-17.05
-20.28
-24.00
-28.26
-32.93
-37.54
-41.36
-43.48
-43.05
-39.61
-33.31
-24.90
-15.57
-6.48
1.49
7.88
12.67
16.01
18.05
18.87
18.54
17.27
15.45
13.61
12.26
11.62
11.57
11.71
11.54
10.70
9.14
7.07
4.94
3.20
2.10
1.68
1.75
1.99
2.06
1.71
0.85
-0.41
-1.82
-3.07
-4.04
-4.86
-5.88
-7.55
-10.15
-13.67
-17.80
-22.02
-25.71
-28.29
-29.13
-27.63
-23.27
-15.85
-5.61
6.66
19.79
32.47
43.55
52.18
57.81
60.05
58.62
53.37
44.46
32.54
18.84
4.98
-7.51
-17.65
-25.37
-31.34
-36.52
-41.51
-46.21
-49.93
-51.98
-52.22
-51.35
-50.62
-51.15
-53.31
-56.48
-59.42
-60.96
-60.53
-58.43
-55.54
-52.89
-51.19
-50.71
-51.29
-52.49
-53.82
-54.83
-55.12
-54.31
-52.11
-48.29
-42.79
-35.76
-27.50
-18.28
-8.20
2.96
15.51
29.40
43.73
56.53
65.12
67.03
61.18
48.54
32.04
15.61
2.81
-4.31
-5.67
-2.73
2.45
8.09
13.18
17.48
21.15
24.31
26.91
28.61
29.08
28.15
26.02
23.16
20.15
17.46
15.28
13.47
11.70
9.58
6.85
3.46
-0.43
-4.54
-8.53
-12.07
-14.79
-16.21
-15.82
-13.15
-8.02
-0.70
8.06
17.22
25.71
32.76
38.05
41.57
43.48
43.94
43.17
41.41
39.12
36.81
34.92
33.65
32.88
32.34
31.80
31.25
30.80
30.63
30.72
30.81
30.49
29.37
27.20
24.00
19.97
15.43
10.75
6.26
2.23
-1.25
-4.27
-7.16
-10.33
-14.15
-18.68
-23.54
-27.98
-30.99
-31.70
-29.54
-24.50
-17.03
-7.95
1.79
11.30
19.91
27.16
32.84
36.81
39.04
39.49
38.20
35.35
31.31
26.67
22.17
18.52
16.21
15.41
15.88
17.09
18.41
19.22
19.02
17.43
14.26
9.53
3.49
-3.25
-9.96
-15.85
-20.50
-23.98
-26.86
-30.01
-34.13
-39.42
-45.31
-50.57
-53.72
-53.54
-49.57
-42.29
-32.96
-23.17
-14.34
-7.27
-2.05
1.71
4.57
6.84
8.49
9.23
8.73
6.85
3.72
-0.32
-4.82
-9.27
-13.08
-15.58
-16.03
-14.00
-9.67
-3.99
1.47
5.14
6.01
4.07
0.22
-4.28
-8.43
-11.85
-14.78
-17.71
-20.97
-24.56
-28.23
-31.59
-34.24
-35.79
-35.64
-33.07
-27.42
-18.41
-6.43
7.52
22.03
35.79
47.90
57.99
66.19
72.84
78.28
82.79
86.58
89.80
92.67
95.42
98.23
101.11
103.91
106.30
107.96
108.75
108.71
108.19
107.61
107.29
107.32
107.47
107.32
106.51
104.85
102.47
99.71
97.02
94.66
92.64
90.67
88.35
85.34
81.59
77.40
73.35
70.05
67.90
66.98
67.08
67.84
68.86
69.84
70.56
70.80
70.30
68.73
65.82
61.48
55.86
49.35
42.46
35.66
29.26
23.32
17.65
12.02
6.23
0.26
-5.69
-11.18
-15.69
-18.82
-20.48
-21.01
-21.19
-21.96
-24.13
-28.07
-33.60
-40.09
-46.67
-52.46
-56.80
-59.35
-60.13
-59.46
-57.90
-56.06
-54.44
-53.34
-52.72
-52.34
-51.92
-51.28
-50.38
-49.27
-48.06
-46.85
-45.63
-44.38
-43.07
-41.65
-40.17
-38.70
-37.39
-36.35
-35.61
-35.08
-34.60
-33.98
-33.05
-31.82
-30.38
-28.88
-27.52
-26.39
-25.50
-24.77
-24.11
-23.49
-22.92
-22.53
-22.44
-22.74
-23.41
-24.33
-25.40
-26.54
-27.78
-29.19
-30.76
-32.34
-33.66
-34.40
-34.36
-33.48
-31.91
-29.87
-27.52
-24.90
-21.93
-18.49
-14.55
-10.18
-5.60
-0.95
3.70
8.39
13.18
18.09
23.01
27.66
31.67
34.70
36.54
37.17
36.79
35.68
34.20
32.54
30.70
28.47
25.65
22.11
17.99
13.63
9.39
5.53
2.11
-0.99
-3.91
-6.71
-9.35
-11.64
-13.42
-14.69
-15.58
-16.44
-17.60
-19.23
-21.28
-23.50
-25.61
-27.45
-29.13
-30.95
-33.19
-35.86
-38.68
-41.11
-42.68
-43.17
-42.65
-41.44
-39.85
-38.07
-36.16
-34.08
-31.86
-29.60
-27.52
-25.75
-24.35
-23.18
-22.05
-20.76
-19.19
-17.38
-15.46
-13.61
-12.03
-10.80
-9.92
-9.38
-9.12
-9.10
-9.24
-9.40
-9.45
-9.23
-8.74
-8.02
-7.25
-6.57
-6.14
-6.03
-6.26
-6.86
-7.77
-8.93
-10.17
-11.34
-12.27
-12.92
-13.32
-13.57
-13.74
-13.86
-13.93
-13.98
-14.11
-14.43
-15.02
-15.81
-16.58
-17.12
-17.22
-16.87
-16.16
-15.29
-14.46
-13.82
-13.47
-13.45
-13.82
-14.54
-15.54
-16.64
-17.71
-18.65
-19.52
-20.48
-21.67
-23.17
-24.95
-26.85
-28.63
-30.05
-30.80
-30.67
-29.43
-26.98
-23.42
-19.03
-14.31
-9.74
-5.64
-2.11
0.95
3.68
6.18
8.41
10.24
11.54
12.28
12.44
12.12
11.41
10.44
9.33
8.24
7.32
6.64
6.22
5.95
5.71
5.33
4.67
3.61
2.11
0.25
-1.89
-4.18
-6.51
-8.79
-10.88
-12.63
-13.91
-14.79
-15.58
-16.76
-18.76
-21.68
-25.03
-27.94
-29.43
-28.78
-25.86
-21.13
-15.35
-9.29
-3.50
1.70
6.25
10.05
13.01
14.98
15.90
15.85
15.15
14.27
13.69
13.71
14.33
15.23
15.99
16.30
16.13
15.70
15.35
15.25
15.32
15.29
14.82
13.79
12.37
10.85
9.50
8.38
7.33
6.12
4.66
3.09
1.80
1.17
1.39
2.31
3.50
4.35
4.33
3.22
1.18
-1.16
-2.97
-3.44
-2.07
1.16
5.81
11.14
16.44
21.19
25.17
28.35
30.76
32.40
33.26
33.35
32.81
31.79
30.45
28.95
27.43
26.01
24.78
23.62
22.23
20.19
17.16
13.07
8.27
3.35
-1.09
-4.69
-7.42
-9.55
-11.40
-13.23
-15.12
-17.04
-18.94
-20.67
-22.19
-23.51
-24.75
-26.04
-27.57
-29.43
-31.58
-33.89
-36.15
-38.15
-39.68
-40.46
-40.07
-38.15
-34.41
-28.99
-22.45
-15.68
-9.59
-4.80
-1.46
0.65
1.93
2.71
3.14
3.28
3.18
2.99
2.95
3.23
3.84
4.65
5.34
5.58
5.20
4.21
2.80
1.25
-0.20
-1.48
-2.66
-3.87
-5.26
-6.79
-8.35
-9.74
-10.90
-11.98
-13.28
-15.17
-17.85
-21.32
-25.28
-29.26
-32.71
-35.13
-36.10
-35.28
-32.52
-27.90
-21.75
-14.68
-7.48
-0.92
4.51
8.65
11.65
13.79
15.23
16.02
16.13
15.62
14.72
13.84
13.37
13.52
14.27
15.34
16.41
17.20
17.60
17.58
17.17
16.34
15.06
13.24
10.88
8.07
5.05
2.13
-0.43
-2.54
-4.30
-5.98
-7.86
-10.17
-12.98
-16.23
-19.80
-23.47
-26.95
-29.82
-31.59
-31.77
-30.01
-26.24
-20.70
-13.96
-6.72
0.24
6.26
10.81
13.61
14.67
14.27
12.93
11.28
9.87
9.00
8.73
8.87
9.14
9.33
9.31
9.10
8.74
8.29
7.78
7.13
6.24
4.95
3.06
0.48
-2.72
-6.37
-10.12
-13.66
-16.83
-19.60
-22.09
-24.49
-27.05
-30.06
-33.73
-38.14
-43.04
-47.81
-51.46
-52.93
-51.42
-46.69
-39.18
-29.87
-19.95
-10.49
-2.13
4.87
10.50
14.91
18.11
20.17
21.13
21.25
20.94
20.71
20.97
21.91
23.36
24.93
26.14
26.63
26.28
25.26
23.92
22.63
21.52
20.48
19.14
17.05
13.93
9.84
5.14
0.39
-3.97
-7.77
-11.14
-14.43
-18.05
-22.24
-27.09
-32.43
-37.87
-42.76
-46.27
-47.51
-45.79
-40.96
-33.44
-24.19
-14.44
-5.28
2.57
8.86
13.70
17.31
19.89
21.50
22.17
21.98
21.18
20.19
19.43
19.28
19.83
20.87
22.05
22.99
23.43
23.34
22.78
21.83
20.49
18.66
16.27
13.34
10.02
6.58
3.31
0.36
-2.28
-4.82
-7.54
-10.77
-14.77
-19.65
-25.33
-31.49
-37.46
-42.30
-44.94
-44.54
-40.72
-33.86
-24.97
-15.40
-6.40
1.18
7.08
11.40
14.35
16.18
17.12
17.41
17.42
17.52
17.97
18.73
19.63
20.34
20.70
20.72
20.55
20.36
20.23
20.06
19.63
18.67
16.94
14.30
10.77
6.54
1.96
-2.56
-6.72
-10.49
-14.14
-18.10
-22.84
-28.62
-35.35
-42.57
-49.47
-55.03
-58.20
-58.14
-54.49
-47.46
-37.89
-27.04
-16.21
-6.49
1.53
7.81
12.61
16.30
19.20
21.44
23.06
24.23
25.16
26.18
27.55
29.26
31.07
32.61
33.61
34.03
34.05
33.85
33.41
32.41
30.37
26.96
22.19
16.54
10.75
5.53
1.29
-1.98
-4.71
-7.52
-10.99
-15.59
-21.49
-28.43
-35.58
-41.61
-44.88
-44.01
-38.39
-28.45
-15.70
-2.19
10.23
20.41
28.08
33.57
37.39
39.82
40.85
40.41
38.71
36.29
33.95
32.37
31.85
32.20
32.89
33.31
33.10
32.31
31.21
30.12
29.12
27.93
26.09
23.18
19.04
13.96
8.49
3.29
-1.20
-4.85
-7.88
-10.78
-14.10
-18.32
-23.61
-29.71
-35.92
-41.09
-43.95
-43.42
-39.04
-31.14
-20.76
-9.39
1.61
11.19
18.89
24.61
28.49
30.65
31.18
30.21
28.04
25.23
22.46
20.35
19.23
19.07
19.55
20.30
21.04
21.66
22.10
22.30
22.05
21.10
19.22
16.40
12.82
8.82
4.73
0.77
-3.07
-6.95
-11.12
-15.85
-21.34
-27.59
-34.33
-40.88
-46.17
-48.97
-48.19
-43.35
-34.77
-23.57
-11.40
0.14
9.83
17.14
22.12
25.15
26.67
26.97
26.24
24.59
22.22
19.49
16.88
14.92
14.03
14.40
15.90
18.16
20.57
22.53
23.57
23.41
22.00
19.42
15.89
11.69
7.21
2.81
-1.21
-4.78
-8.11
-11.67
-15.96
-21.30
-27.51
-33.89
-39.26
-42.28
-41.86
-37.51
-29.54
-19.01
-7.45
3.60
12.94
19.95
24.63
27.39
28.84
29.54
29.92
30.20
30.45
30.60
30.58
30.31
29.83
29.21
28.52
27.87
27.27
26.73
26.19
25.45
24.27
22.36
19.50
15.69
11.19
6.39
1.74
-2.55
-6.54
-10.54
-14.96
-20.18
-26.25
-32.86
-39.26
-44.34
-46.86
-45.79
-40.75
-32.17
-21.23
-9.49
1.61
11.13
18.79
24.83
29.65
33.55
36.55
38.52
39.36
39.14
38.22
37.12
36.25
35.82
35.75
35.77
35.65
35.28
34.68
33.92
33.00
31.75
29.90
27.19
23.65
19.58
15.50
11.99
9.38
7.71
6.63
5.67
4.36
2.50
0.19
-2.20
-4.19
-5.32
-5.25
-3.78
-0.84
3.45
8.73
14.49
20.02
24.69
28.05
29.95
30.53
30.10
28.99
27.43
25.58
23.53
21.37
19.23
17.21
15.39
13.76
12.26
10.77
9.17
7.32
5.09
2.39
-0.80
-4.40
-8.24
-12.04
-15.50
-18.42
-20.76
-22.69
-24.51
-26.57
-29.12
-32.32
-36.20
-40.67
-45.48
-50.14
-53.86
-55.71
-54.79
-50.58
-43.24
-33.60
-22.88
-12.42
-3.17
4.35
10.11
14.33
17.30
19.22
20.29
20.70
20.74
20.79
21.18
22.08
23.37
24.71
25.62
25.75
25.04
23.69
22.05
20.37
18.67
16.71
14.23
11.03
7.20
3.05
-1.02
-4.64
-7.74
-10.43
-13.01
-15.81
-19.11
-23.03
-27.44
-32.03
-36.17
-39.09
-40.04
-38.50
-34.42
-28.25
-20.85
-13.19
-6.13
-0.16
4.55
8.05
10.48
11.91
12.40
12.09
11.29
10.36
9.70
9.51
9.73
10.16
10.52
10.65
10.54
10.26
9.85
9.22
8.16
6.39
3.76
0.29
-3.67
-7.67
-11.27
-14.20
-16.43
-18.15
-19.70
-21.43
-23.63
-26.41
-29.64
-32.92
-35.63
-37.01
-36.38
-33.34
-27.88
-20.46
-11.87
-3.05
5.15
12.13
17.61
21.60
24.28
25.87
26.51
26.33
25.45
24.14
22.79
21.90
21.81
22.57
23.91
25.29
26.15
26.11
25.09
23.31
21.14
18.88
16.65
14.34
11.74
8.63
5.06
1.32
-2.11
-4.77
-6.51
-7.55
-8.51
-10.18
-13.18
-17.85
-24.00
-31.04
-38.01
-43.86
-47.60
-48.51
-46.29
-41.08
-33.47
-24.30
-14.55
-5.08
3.44
10.59
16.17
20.21
22.75
23.87
23.72
22.51
20.66
18.69
17.10
16.21
16.06
16.39
16.79
16.89
16.45
15.44
13.97
12.19
10.24
8.17
5.92
3.33
0.22
-3.49
-7.72
-12.13
-16.27
-19.76
-22.51
-24.75
-26.95
-29.58
-32.86
-36.62
-40.37
-43.41
-45.04
-44.70
-42.10
-37.24
-30.43
-22.23
-13.39
-4.67
3.26
9.96
15.25
19.12
21.70
23.12
23.62
23.44
22.97
22.56
22.49
22.88
23.54
24.12
24.21
23.55
22.15
20.32
18.51
17.04
15.94
14.91
13.44
11.13
7.83
3.82
-0.42
-4.38
-7.81
-10.72
-13.37
-16.07
-19.02
-22.31
-25.96
-29.94
-34.07
-37.95
-40.90
-42.10
-40.79
-36.63
-29.91
-21.43
-12.29
-3.47
4.35
10.89
16.11
20.03
22.66
23.99
24.14
23.36
22.06
20.67
19.58
18.97
18.90
19.20
19.64
20.00
20.09
19.83
19.21
18.31
17.23
15.98
14.51
12.74
10.57
7.98
5.04
1.90
-1.25
-4.31
-7.27
-10.21
-13.28
-16.62
-20.26
-24.03
-27.59
-30.40
-31.86
-31.35
-28.45
-23.04
-15.45
-6.37
3.25
12.42
20.36
26.60
30.98
33.59
34.66
34.52
33.58
32.24
30.90
29.78
28.96
28.37
27.87
27.32
26.66
25.90
25.08
24.22
23.28
22.16
20.75
18.97
16.77
14.17
11.24
8.08
4.81
1.49
-1.84
-5.21
-8.75
-12.61
-16.93
-21.74
-26.85
-31.73
-35.62
-37.63
-37.03
-33.54
-27.44
-19.54
-10.97
-2.77
4.29
9.87
13.96
16.68
18.17
18.54
17.93
16.59
14.93
13.42
12.41
11.99
12.02
12.19
12.20
11.87
11.20
10.31
9.31
8.21
6.89
5.14
2.74
-0.43
-4.26
-8.51
-12.78
-16.71
-20.05
-22.84
-25.25
-27.63
-30.26
-33.27
-36.56
-39.76
-42.27
-43.39
-42.48
-39.18
-33.59
-26.20
-17.84
-9.43
-1.66
5.13
10.82
15.43
18.94
21.27
22.35
22.27
21.33
20.00
18.70
17.65
16.86
16.16
15.35
14.37
13.32
12.37
11.67
11.18
10.70
9.95
8.63
6.59
3.89
0.78
-2.34
-5.07
-7.19
-8.69
-9.84
-11.10
-12.93
-15.62
-19.18
-23.27
-27.30
-30.58
-32.43
-32.36
-30.23
-26.22
-20.82
-14.71
-8.59
-2.99
1.76
5.59
8.51
10.60
11.92
12.49
12.43
11.96
11.34
10.89
10.81
11.13
11.73
12.37
12.82
12.86
12.31
11.06
9.08
6.41
3.19
-0.39
-4.09
-7.69
-11.01
-13.98
-16.61
-19.08
-21.59
-24.44
-27.86
-31.90
-36.44
-41.02
-44.95
-47.39
-47.58
-45.10
-40.05
-33.04
-25.03
-17.05
-9.81
-3.68
1.38
5.51
8.83
11.27
12.73
13.18
12.87
12.17
11.57
11.42
11.85
12.72
13.80
14.85
15.67
16.16
16.29
16.03
15.36
14.27
12.82
11.06
9.05
6.87
4.56
2.18
-0.23
-2.69
-5.29
-8.21
-11.72
-16.03
-21.15
-26.76
-32.21
-36.63
-39.17
-39.30
-36.91
-32.41
-26.53
-20.10
-13.89
-8.46
-4.17
-1.24
0.23
0.22
-1.15
-3.62
-6.79
-10.21
-13.52
-16.55
-19.28
-21.84
-24.42
-27.17
-30.22
-33.61
-37.36
-41.43
-45.77
-50.29
-54.87
-59.39
-63.67
-67.51
-70.71
-73.20
-75.07
-76.59
-78.14
-79.86
-81.53
-82.34
-81.13
-76.65
-68.03
-55.03
-38.19
-18.64
2.17
22.80
42.03
59.05
73.37
84.79
93.33
99.08
102.26
103.17
102.16
99.63
96.04
91.80
87.30
82.94
79.00
75.72
73.18
71.28
69.68
67.92
65.47
61.94
57.15
51.20
44.33
36.92
29.33
21.84
14.56
7.49
0.51
-6.43
-13.27
-19.63
-24.88
-28.21
-28.96
-26.82
-21.98
-15.10
-7.11
1.03
8.59
15.10
20.28
24.05
26.39
27.39
27.28
26.41
25.19
23.96
22.90
22.00
21.17
20.31
19.41
18.53
17.76
17.09
16.44
15.56
14.14
11.96
9.01
5.49
1.83
-1.54
-4.30
-6.47
-8.30
-10.23
-12.65
-15.80
-19.65
-23.95
-28.25
-31.95
-34.30
-34.54
-32.13
-26.96
-19.46
-10.58
-1.46
6.88
13.82
19.14
22.97
25.50
26.93
27.36
26.91
25.76
24.18
22.51
21.05
20.06
19.64
19.73
20.11
20.42
20.29
19.41
17.69
15.19
12.11
8.70
5.16
1.66
-1.72
-4.96
-8.12
-11.41
-15.11
-19.54
-24.84
-30.79
-36.74
-41.69
-44.56
-44.49
-41.19
-35.00
-26.77
-17.62
-8.59
-0.40
6.60
12.29
16.63
19.57
21.08
21.25
20.37
18.91
17.36
16.03
15.02
14.24
13.49
12.71
11.98
11.42
11.06
10.75
10.17
8.93
6.73
3.51
-0.48
-4.82
-8.99
-12.64
-15.64
-18.13
-20.44
-22.99
-26.15
-30.05
-34.50
-38.89
-42.29
-43.71
-42.39
-38.11
-31.30
-22.92
-14.13
-5.98
0.88
6.23
10.17
12.89
14.59
15.34
15.28
14.60
13.63
12.73
12.22
12.24
12.66
13.20
13.55
13.59
13.30
12.79
12.04
10.91
9.09
6.39
2.83
-1.23
-5.25
-8.72
-11.43
-13.63
-15.82
-18.66
-22.54
-27.41
-32.69
-37.43
-40.53
-41.02
-38.38
-32.68
-24.51
-14.89
-4.94
4.28
12.00
17.85
21.82
24.16
25.22
25.31
24.66
23.39
21.66
19.74
17.96
16.63
15.92
15.69
15.62
15.29
14.38
12.78
10.56
7.94
5.02
1.86
-1.60
-5.38
-9.49
-13.85
-18.35
-22.94
-27.62
-32.41
-37.21
-41.66
-45.11
-46.67
-45.58
-41.42
-34.36
-25.20
-15.06
-5.10
3.75
11.04
16.64
20.68
23.31
24.74
25.17
24.88
24.23
23.61
23.33
23.56
24.26
25.26
26.26
26.96
27.09
26.44
24.93
22.65
19.86
16.93
14.27
12.12
10.60
9.62
9.05
8.84
9.00
9.55
10.37
11.17
11.60
11.40
10.59
9.56
8.79
8.73
9.51
10.92
12.56
13.97
14.86
15.16
14.99
14.59
14.21
14.06
14.27
14.82
15.55
16.18
16.36
15.76
14.20
11.67
8.36
4.56
0.57
-3.40
-7.30
-11.15
-15.00
-18.95
-23.02
-27.25
-31.76
-36.70
-42.20
-48.34
-55.05
-62.13
-69.31
-76.22
-82.42
-87.22
-89.76
-89.12
-84.66
-76.27
-64.62
-50.99
-36.92
-23.78
-12.49
-3.40
3.60
8.76
12.43
14.89
16.42
17.33
17.93
18.41
18.83
19.08
18.95
18.28
17.01
15.20
12.95
10.30
7.18
3.46
-0.92
-5.86
-11.08
-16.21
-20.95
-25.25
-29.26
-33.31
-37.65
-42.42
-47.48
-52.47
-56.80
-59.75
-60.49
-58.36
-53.02
-44.67
-34.11
-22.60
-11.49
-1.88
5.69
11.16
14.81
16.99
17.98
18.03
17.35
16.34
15.46
15.11
15.49
16.51
17.87
19.18
20.16
20.74
20.91
20.70
20.03
18.79
16.83
14.12
10.82
7.18
3.52
0.06
-3.16
-6.36
-9.89
-14.15
-19.31
-25.19
-31.07
-35.83
-38.20
-37.14
-32.22
-23.84
-13.11
-1.52
9.55
19.14
26.81
32.54
36.50
38.88
39.88
39.79
38.95
37.78
36.66
35.86
35.45
35.36
35.44
35.52
35.56
35.58
35.61
35.71
35.80
35.65
34.96
33.40
30.79
27.17
22.71
17.60
11.93
5.61
-1.58
-9.80
-18.99
-28.74
-38.25
-46.38
-51.90
-53.73
-51.33
-44.85
-35.18
-23.69
-11.88
-0.99
8.19
15.36
20.58
24.01
25.90
26.48
26.04
24.92
23.53
22.22
21.20
20.52
20.03
19.57
18.97
18.11
16.93
15.33
13.19
10.31
6.65
2.32
-2.36
-6.96
-11.12
-14.69
-17.75
-20.63
-23.68
-27.24
-31.55
-36.54
-41.78
-46.58
-49.99
-51.09
-49.21
-44.14
-36.17
-26.05
-14.77
-3.38
7.17
16.21
23.39
28.63
32.08
34.00
34.66
34.28
33.09
31.34
29.32
27.37
25.80
24.75
24.23
24.05
23.95
23.67
23.04
22.02
20.58
18.68
16.20
13.07
9.31
5.19
1.13
-2.51
-5.60
-8.45
-11.56
-15.43
-20.14
-25.24
-29.74
-32.46
-32.45
-29.25
-23.07
-14.71
-5.26
4.16
12.67
19.76
25.26
29.25
31.89
33.29
33.58
32.93
31.58
29.85
28.09
26.52
25.20
24.12
23.20
22.41
21.78
21.35
21.02
20.53
19.48
17.47
14.33
10.20
5.57
1.07
-2.82
-5.91
-8.44
-10.92
-13.92
-17.87
-22.83
-28.54
-34.43
-39.70
-43.43
-44.76
-43.02
-38.01
-30.09
-20.19
-9.52
0.68
9.47
16.39
21.42
24.82
26.90
27.91
28.05
27.45
26.31
24.90
23.54
22.51
21.92
21.72
21.68
21.51
20.99
20.04
18.78
17.44
16.17
14.95
13.57
11.66
8.94
5.38
1.24
-3.00
-6.84
-10.02
-12.58
-14.75
-16.96
-19.58
-22.87
-26.90
-31.51
-36.25
-40.38
-42.98
-43.13
-40.21
-34.14
-25.45
-15.12
-4.31
5.91
14.75
21.78
26.91
30.23
31.99
32.48
32.05
31.01
29.67
28.31
27.14
26.32
25.82
25.54
25.29
24.91
24.31
23.50
22.56
21.50
20.26
18.73
16.75
14.29
11.39
8.23
5.02
1.91
-1.16
-4.29
-7.61
-11.17
-14.85
-18.46
-21.84
-24.98
-28.10
-31.56
-35.60
-40.16
-44.74
-48.44
-50.23
-49.26
-45.19
-38.30
-29.41
-19.58
-9.87
-1.06
6.41
12.39
16.87
19.95
21.77
22.53
22.55
22.17
21.76
21.63
21.90
22.54
23.35
24.14
24.73
25.02
25.01
24.67
24.00
22.90
21.32
19.27
16.85
14.24
11.58
8.98
6.41
3.89
1.40
-1.01
-3.31
-5.51
-7.68
-9.88
-12.18
-14.59
-17.17
-20.06
-23.39
-27.21
-31.30
-35.04
-37.52
-37.82
-35.38
-30.20
-22.89
-14.45
-5.91
1.87
8.41
13.51
17.19
19.57
20.80
21.06
20.62
19.74
18.74
17.91
17.48
17.58
18.22
19.26
20.46
21.53
22.22
22.37
21.91
20.83
19.21
17.12
14.73
12.17
9.59
7.09
4.72
2.45
0.17
-2.22
-4.79
-7.54
-10.42
-13.34
-16.27
-19.16
-22.02
-24.90
-27.84
-30.86
-33.83
-36.49
-38.30
-38.56
-36.61
-32.06
-25.05
-16.21
-6.58
2.77
11.00
17.69
22.73
26.19
28.23
29.02
28.82
28.01
27.04
26.36
26.27
26.83
27.91
29.25
30.53
31.55
32.17
32.38
32.17
31.46
30.11
27.94
24.83
20.79
16.04
10.93
5.83
1.04
-3.32
-7.30
-10.99
-14.49
-17.85
-21.05
-24.08
-26.93
-29.63
-32.28
-34.99
-37.88
-41.01
-44.27
-47.29
-49.46
-50.03
-48.33
-44.09
-37.53
-29.33
-20.45
-11.82
-4.16
2.14
6.97
10.40
12.59
13.74
14.09
13.89
13.39
12.84
12.41
12.17
12.08
12.01
11.83
11.49
11.03
10.59
10.29
10.16
10.02
9.66
8.86
7.61
6.01
4.21
2.31
0.23
-2.10
-4.66
-7.24
-9.54
-11.30
-12.55
-13.52
-14.67
-16.42
-18.97
-22.26
-25.93
-29.40
-31.98
-32.94
-31.74
-28.14
-22.37
-15.12
-7.38
-0.17
5.77
10.10
12.91
14.49
15.19
15.21
14.66
13.58
12.15
10.70
9.61
9.14
9.37
10.14
11.12
12.06
12.76
13.17
13.21
12.81
11.92
10.51
8.72
6.73
4.69
2.72
0.74
-1.36
-3.69
-6.28
-9.04
-11.85
-14.58
-17.14
-19.54
-21.85
-24.24
-26.89
-29.83
-32.88
-35.53
-37.05
-36.71
-34.03
-29.04
-22.24
-14.54
-6.91
-0.15
5.31
9.38
12.19
13.90
14.65
14.53
13.60
12.01
10.04
8.05
6.39
5.32
4.91
4.94
5.14
5.16
4.81
4.05
2.99
1.69
0.08
-2.07
-4.98
-8.78
-13.31
-18.21
-23.00
-27.37
-31.29
-34.98
-38.85
-43.26
-48.45
-54.44
-61.06
-67.94
-74.56
-80.31
-84.58
-87.00
-87.53
-86.57
-84.85
-83.25
-82.51
-83.15
-85.39
-89.22
-94.53
-101.14
-108.74
-116.81
-124.65
-131.34
-135.93
-137.44
-134.93
-127.65
-115.09
-97.12
-74.09
-46.86
-16.66
15.01
46.56
76.47
103.36
126.07
143.77
156.03
162.92
164.96
162.98
157.87
150.43
141.26
130.76
119.18
106.81
94.03
81.46
69.88
60.15
52.95
48.68
47.21
47.90
49.73
51.62
52.77
52.79
51.72
49.78
47.21
44.10
40.52
36.61
32.68
29.14
26.29
24.25
22.79
21.54
20.09
18.22
15.96
13.52
11.15
9.03
7.16
5.35
3.33
0.83
-2.32
-6.07
-10.24
-14.50
-18.58
-22.31
-25.75
-29.12
-32.69
-36.67
-41.12
-45.88
-50.51
-54.35
-56.66
-56.69
-54.00
-48.55
-40.80
-31.58
-21.86
-12.48
-3.99
3.35
9.48
14.40
18.08
20.46
21.61
21.80
21.45
21.09
21.21
22.04
23.50
25.29
26.98
28.22
28.91
29.13
29.08
28.91
28.55
27.69
26.01
23.25
19.36
14.59
9.26
3.76
-1.68
-6.98
-12.20
-17.49
-22.97
-28.74
-34.86
-41.30
-47.93
-54.42
-60.20
-64.41
-66.15
-64.68
-59.78
-51.84
-41.88
-31.20
-21.00
-12.04
-4.51
1.73
6.96
11.36
14.93
17.58
19.33
20.35
20.97
21.55
22.32
23.37
24.62
25.89
27.00
27.80
28.25
28.38
28.26
28.00
27.58
26.85
25.57
23.51
20.64
17.20
13.57
10.17
7.24
4.67
2.09
-0.97
-4.91
-9.92
-15.89
-22.37
-28.65
-33.77
-36.74
-36.81
-33.67
-27.55
-19.23
-9.76
-0.21
8.60
16.17
22.33
27.08
30.47
32.52
33.28
32.91
31.74
30.28
28.99
28.17
27.88
27.88
27.94
27.93
27.91
28.01
28.27
28.51
28.36
27.40
25.42
22.52
19.04
15.39
11.83
8.44
5.11
1.67
-1.95
-5.80
-9.90
-14.30
-19.12
-24.40
-29.94
-35.18
-39.31
-41.46
-41.05
-37.95
-32.50
-25.39
-17.38
-9.22
-1.46
5.42
11.04
15.15
17.67
18.77
18.80
18.30
17.76
17.55
17.81
18.48
19.39
20.34
21.20
21.86
22.29
22.43
22.17
21.39
19.96
17.82
14.97
11.47
7.45
3.06
-1.53
-6.14
-10.69
-15.16
-19.65
-24.37
-29.53
-35.24
-41.33
-47.24
-52.10
-54.80
-54.47
-50.66
-43.62
-34.21
-23.63
-13.08
-3.42
4.95
11.99
17.82
22.47
25.85
27.82
28.42
27.97
27.01
26.18
25.81
25.93
26.20
26.18
25.64
24.64
23.55
22.69
22.14
21.69
20.89
19.32
16.80
13.48
9.73
6.00
2.66
-0.17
-2.59
-4.87
-7.38
-10.45
-14.33
-19.11
-24.61
-30.33
-35.43
-38.86
-39.57
-36.83
-30.58
-21.44
-10.64
0.46
10.73
19.56
26.84
32.76
37.47
40.98
43.19
44.02
43.61
42.32
40.61
38.88
37.29
35.76
34.11
32.19
30.05
27.85
25.81
24.05
22.44
20.70
18.41
15.29
11.28
6.69
2.03
-2.12
-5.36
-7.58
-9.04
-10.22
-11.76
-14.18
-17.78
-22.49
-27.77
-32.72
-36.21
-37.22
-35.11
-29.89
-22.22
-13.18
-3.97
4.52
11.81
17.81
22.66
26.49
29.32
31.09
31.83
31.75
31.20
30.63
30.28
30.18
30.08
29.65
28.68
27.18
25.36
23.52
21.86
20.45
19.18
17.89
16.46
14.85
13.12
11.43
9.99
8.93
8.31
7.97
7.60
6.83
5.33
2.99
-0.13
-3.84
-7.84
-11.81
-15.35
-17.97
-19.12
-18.38
-15.61
-11.13
-5.56
0.30
5.80
10.57
14.50
17.65
20.10
21.90
23.10
23.79
24.11
24.21
24.16
23.96
23.52
22.82
21.93
20.97
20.09
19.38
18.87
18.54
18.32
18.10
17.77
17.23
16.41
15.37
14.23
13.15
12.18
11.25
10.18
8.77
6.93
4.71
2.33
0.03
-2.03
-3.83
-5.45
-6.98
-8.42
-9.69
-10.70
-11.35
-11.73
-12.00
-12.33
-12.78
-13.25
-13.52
-13.36
-12.71
-11.72
-10.65
-9.78
-9.21
-8.87
-8.56
-8.10
-7.38
-6.43
-5.35
-4.32
-3.53
-3.16
-3.33
-4.01
-5.05
-6.19
-7.17
-7.85
-8.24
-8.45
-8.61
-8.82
-9.11
-9.49
-10.01
-10.76
-11.78
-13.05
-14.49
-16.01
-17.50
-18.92
-20.21
-21.30
-22.09
-22.48
-22.45
-22.06
-21.45
-20.73
-19.94
-19.03
-17.94
-16.66
-15.26
-13.83
-12.47
-11.19
-10.02
-8.96
-8.08
-7.43
-7.02
-6.74
-6.45
-6.02
-5.48
-5.01
-4.75
-4.81
-5.11
-5.47
-5.75
-5.84
-5.76
-5.62
-5.51
-5.50
-5.64
-5.96
-6.48
-7.20
-8.07
-9.00
-9.92
-10.82
-11.73
-12.68
-13.73
-14.86
-16.06
-17.34
-18.62
-19.80
-20.67
-21.00
-20.64
-19.57
-17.94
-16.04
-14.16
-12.40
-10.75
-9.04
-7.17
-5.15
-3.15
-1.43
-0.19
0.53
0.89
1.06
1.25
1.54
1.96
2.41
2.87
3.27
3.52
3.60
3.50
3.30
3.14
3.11
3.23
3.38
3.34
2.91
2.03
0.76
-0.78
-2.40
-4.05
-5.70
-7.42
-9.31
-11.52
-14.17
-17.36
-21.01
-24.77
-28.09
-30.31
-30.94
-29.78
-27.04
-23.19
-18.82
-14.41
-10.22
-6.36
-2.88
0.17
2.66
4.45
5.51
5.94
5.97
5.90
5.99
6.37
7.00
7.70
8.26
8.48
8.34
7.88
7.26
6.57
5.89
5.19
4.44
3.60
2.69
1.70
0.67
-0.46
-1.78
-3.36
-5.28
-7.51
-10.05
-12.86
-15.87
-18.92
-21.66
-23.58
-24.11
-22.84
-19.69
-15.07
-9.69
-4.40
0.08
3.39
5.43
6.36
6.37
5.65
4.35
2.70
0.98
-0.50
-1.45
-1.80
-1.61
-1.11
-0.54
-0.03
0.41
0.76
0.99
0.98
0.52
-0.52
-2.17
-4.32
-6.76
-9.30
-11.83
-14.27
-16.63
-18.94
-21.24
-23.69
-26.40
-29.36
-32.29
-34.64
-35.65
-34.70
-31.54
-26.41
-20.01
-13.21
-6.81
-1.35
2.95
6.09
8.19
9.36
9.72
9.44
8.70
7.78
6.94
6.35
6.05
5.91
5.76
5.48
5.00
4.43
3.85
3.31
2.65
1.65
0.07
-2.15
-4.88
-7.87
-10.80
-13.49
-15.95
-18.30
-20.73
-23.46
-26.67
-30.39
-34.42
-38.27
-41.17
-42.22
-40.70
-36.35
-29.56
-21.27
-12.65
-4.77
1.79
6.90
10.79
13.70
15.78
16.99
17.25
16.61
15.33
13.87
12.66
11.99
11.90
12.23
12.72
13.18
13.49
13.57
13.37
12.75
11.50
9.49
6.68
3.19
-0.68
-4.62
-8.37
-11.83
-15.06
-18.29
-21.78
-25.80
-30.49
-35.69
-40.92
-45.31
-47.85
-47.61
-44.12
-37.59
-28.87
-19.17
-9.70
-1.31
5.71
11.51
16.35
20.45
23.75
26.05
27.20
27.26
26.51
25.43
24.45
23.82
23.55
23.47
23.36
23.11
22.69
22.17
21.58
20.81
19.61
17.66
14.70
10.73
6.04
1.16
-3.41
-7.38
-10.80
-14.04
-17.51
-21.55
-26.24
-31.49
-37.08
-42.65
-47.66
-51.38
-52.89
-51.37
-46.44
-38.42
-28.29
-17.40
-7.03
2.01
9.44
15.44
20.27
24.14
27.12
29.18
30.37
30.87
30.95
30.89
30.93
31.20
31.73
32.43
33.15
33.61
33.57
32.86
31.48
29.55
27.30
24.91
22.43
19.78
16.84
13.54
9.93
6.16
2.40
-1.23
-4.72
-8.16
-11.66
-15.28
-19.15
-23.39
-28.19
-33.68
-39.77
-45.96
-51.29
-54.54
-54.58
-50.79
-43.35
-33.18
-21.65
-10.15
0.31
9.27
16.69
22.73
27.57
31.26
33.82
35.33
36.04
36.29
36.38
36.48
36.55
36.49
36.22
35.78
35.33
35.02
34.88
34.77
34.41
33.53
31.99
29.82
27.20
24.28
21.20
17.95
14.51
10.85
6.98
2.98
-1.02
-4.88
-8.53
-11.94
-15.22
-18.55
-22.16
-26.35
-31.21
-36.67
-42.23
-47.02
-49.92
-49.88
-46.29
-39.22
-29.51
-18.49
-7.61
2.02
9.86
15.95
20.67
24.39
27.29
29.33
30.40
30.50
29.85
28.84
27.83
27.08
26.57
26.19
25.75
25.17
24.47
23.70
22.90
22.03
20.99
19.67
18.02
16.10
14.02
11.89
9.70
7.34
4.65
1.60
-1.69
-4.92
-7.77
-10.10
-12.04
-14.03
-16.58
-20.13
-24.83
-30.37
-36.12
-41.13
-44.40
-45.04
-42.64
-37.31
-29.71
-20.91
-12.09
-4.18
2.34
7.49
11.64
15.25
18.65
21.83
24.55
26.51
27.57
27.89
27.81
27.74
27.92
28.38
28.97
29.54
29.94
30.13
30.02
29.45
28.24
26.29
23.63
20.47
17.08
13.66
10.31
7.02
3.78
0.54
-2.68
-5.85
-8.96
-11.96
-14.79
-17.39
-19.78
-22.03
-24.42
-27.28
-30.85
-35.14
-39.69
-43.67
-46.02
-45.78
-42.45
-36.13
-27.59
-17.95
-8.42
0.07
7.07
12.52
16.57
19.40
21.11
21.79
21.65
21.03
20.41
20.18
20.48
21.22
22.17
23.06
23.75
24.21
24.41
24.31
23.80
22.79
21.27
19.35
17.19
14.96
12.80
10.79
8.91
7.05
5.02
2.61
-0.28
-3.57
-6.99
-10.18
-12.88
-15.05
-16.95
-18.95
-21.45
-24.61
-28.35
-32.28
-35.71
-37.83
-37.82
-35.10
-29.59
-21.82
-12.85
-3.93
3.79
9.69
13.66
16.02
17.27
17.80
17.90
17.68
17.22
16.63
16.07
15.68
15.62
15.93
16.55
17.40
18.29
19.06
19.58
19.79
19.70
19.38
18.87
18.12
17.09
15.67
13.82
11.51
8.80
5.77
2.52
-0.79
-3.98
-6.92
-9.60
-12.14
-14.80
-17.87
-21.55
-25.86
-30.54
-35.09
-38.78
-40.80
-40.43
-37.26
-31.36
-23.36
-14.30
-5.35
2.52
8.77
13.31
16.34
18.13
18.86
18.65
17.66
16.21
14.73
13.70
13.43
13.93
14.96
16.13
17.07
17.55
17.56
17.15
16.46
15.51
14.29
12.75
10.85
8.69
6.38
4.07
1.81
-0.41
-2.67
-5.03
-7.53
-10.11
-12.70
-15.33
-18.10
-21.19
-24.75
-28.71
-32.77
-36.30
-38.46
-38.51
-36.01
-31.02
-24.14
-16.28
-8.42
-1.36
4.44
8.83
11.87
13.66
14.33
14.02
13.00
11.69
10.56
10.08
10.46
11.65
13.28
14.86
15.93
16.29
16.05
15.51
14.98
14.51
13.94
12.92
11.09
8.35
4.88
1.11
-2.46
-5.45
-7.75
-9.57
-11.26
-13.22
-15.72
-18.86
-22.56
-26.61
-30.61
-33.96
-35.94
-35.79
-33.03
-27.64
-20.21
-11.76
-3.41
3.90
9.68
13.82
16.47
17.81
18.02
17.34
16.15
14.94
14.16
14.01
14.36
14.85
15.04
14.74
14.01
13.09
12.29
11.72
11.33
10.87
10.10
8.77
6.81
4.28
1.43
-1.44
-4.05
-6.27
-8.18
-10.12
-12.47
-15.51
-19.31
-23.66
-28.07
-31.91
-34.47
-35.11
-33.42
-29.32
-23.16
-15.65
-7.69
-0.19
6.13
10.89
13.98
15.53
15.79
15.12
13.90
12.49
11.21
10.29
9.83
9.84
10.23
10.81
11.38
11.70
11.63
11.10
10.17
8.95
7.53
5.91
4.03
1.81
-0.72
-3.42
-6.10
-8.60
-10.98
-13.48
-16.53
-20.43
-25.22
-30.45
-35.24
-38.50
-39.24
-36.99
-31.91
-24.81
-16.78
-8.87
-1.78
4.17
8.87
12.32
14.46
15.19
14.55
12.77
10.37
7.93
5.96
4.77
4.40
4.68
5.29
5.88
6.10
5.71
4.65
2.95
0.82
-1.53
-3.94
-6.31
-8.61
-10.85
-13.01
-15.22
-17.63
-20.49
-24.06
-28.40
-33.24
-37.89
-41.43
-42.86
-41.48
-37.11
-30.23
-21.80
-13.04
-5.05
1.49
6.35
9.71
11.85
13.07
13.52
13.25
12.35
11.06
9.73
8.72
8.26
8.35
8.79
9.28
9.59
9.55
9.07
8.07
6.42
4.05
0.95
-2.67
-6.51
-10.28
-13.79
-17.13
-20.54
-24.37
-28.82
-33.82
-38.90
-43.29
-46.00
-46.13
-43.19
-37.21
-28.81
-19.05
-9.12
-0.05
7.55
13.49
17.89
21.02
23.12
24.31
24.68
24.29
23.31
21.94
20.46
19.10
18.05
17.34
16.94
16.70
16.47
16.03
15.23
13.89
11.90
9.24
5.98
2.30
-1.62
-5.59
-9.54
-13.57
-17.85
-22.62
-28.00
-33.83
-39.64
-44.61
-47.71
-47.96
-44.77
-38.17
-28.92
-18.33
-7.86
1.35
8.74
14.36
18.59
21.80
24.17
25.66
26.22
25.98
25.28
24.58
24.17
24.10
24.22
24.27
24.12
23.83
23.58
23.44
23.32
22.85
21.62
19.28
15.80
11.45
6.71
2.04
-2.28
-6.31
-10.29
-14.56
-19.34
-24.70
-30.47
-36.25
-41.37
-45.02
-46.34
-44.72
-39.99
-32.58
-23.39
-13.54
-4.03
4.53
11.89
18.10
23.19
27.20
30.10
31.90
32.76
32.95
32.82
32.76
33.00
33.63
34.52
35.35
35.75
35.45
34.35
32.62
30.58
28.55
26.66
24.76
22.52
19.62
15.97
11.74
7.36
3.28
-0.18
-2.96
-5.34
-7.76
-10.71
-14.55
-19.42
-25.24
-31.69
-38.21
-43.98
-48.00
-49.29
-47.15
-41.46
-32.79
-22.27
-11.25
-0.94
7.87
14.91
20.22
23.98
26.38
27.64
28.05
28.08
28.19
28.76
29.87
31.32
32.72
33.75
34.28
34.44
34.45
34.49
34.55
34.47
33.98
32.84
30.94
28.32
25.15
21.71
18.30
15.17
12.44
10.08
7.88
5.59
2.99
0.03
-3.17
-6.46
-9.71
-12.99
-16.55
-20.73
-25.80
-31.80
-38.42
-44.95
-50.42
-53.80
-54.24
-51.27
-45.01
-36.02
-25.30
-13.99
-3.16
6.39
14.23
20.30
24.79
28.02
30.30
31.89
32.92
33.52
33.80
33.94
34.13
34.51
35.11
35.80
36.42
36.81
36.91
36.72
36.17
35.13
33.37
30.70
27.15
22.99
18.74
14.86
11.62
8.92
6.42
3.71
0.55
-3.03
-6.79
-10.41
-13.68
-16.58
-19.28
-22.10
-25.31
-29.19
-33.78
-38.91
-44.02
-48.26
-50.63
-50.29
-46.79
-40.36
-31.77
-22.14
-12.53
-3.75
3.79
9.99
14.88
18.48
20.86
22.15
22.63
22.66
22.66
22.84
23.24
23.73
24.13
24.33
24.41
24.50
24.78
25.32
26.01
26.58
26.69
26.04
24.47
22.13
19.35
16.60
14.21
12.26
10.49
8.51
5.93
2.63
-1.23
-5.30
-9.29
-13.07
-16.70
-20.31
-24.05
-28.01
-32.21
-36.63
-41.09
-45.19
-48.21
-49.23
-47.46
-42.52
-34.69
-24.89
-14.45
-4.65
3.61
10.01
14.71
18.11
20.60
22.35
23.39
23.74
23.56
23.17
22.95
23.14
23.69
24.33
24.69
24.60
24.12
23.51
23.06
22.81
22.53
21.85
20.45
18.25
15.50
12.56
9.78
7.32
5.11
2.97
0.67
-1.90
-4.76
-7.77
-10.75
-13.55
-16.06
-18.29
-20.36
-22.53
-25.12
-28.39
-32.42
-36.95
-41.36
-44.73
-46.09
-44.71
-40.36
-33.39
-24.70
-15.47
-6.76
0.67
6.52
10.84
13.84
15.75
16.74
16.99
16.70
16.17
15.67
15.44
15.51
15.75
16.00
16.11
16.04
15.81
15.56
15.33
15.10
14.75
14.11
13.00
11.35
9.22
6.81
4.34
1.98
-0.24
-2.40
-4.58
-6.84
-9.11
-11.34
-13.55
-15.93
-18.68
-22.02
-25.91
-30.08
-33.97
-36.83
-37.94
-36.70
-32.91
-26.77
-18.96
-10.44
-2.25
4.83
10.40
14.49
17.31
19.14
20.12
20.31
19.81
18.78
17.55
16.49
15.88
15.75
15.94
16.12
16.00
15.46
14.56
13.47
12.39
11.41
10.49
9.44
8.06
6.14
3.64
0.66
-2.54
-5.67
-8.54
-11.09
-13.46
-15.86
-18.55
-21.71
-25.45
-29.75
-34.44
-39.15
-43.22
-45.80
-46.05
-43.44
-37.93
-30.13
-21.08
-11.90
-3.59
3.39
8.96
13.32
16.69
19.21
20.81
21.38
21.00
19.84
18.35
16.97
15.99
15.48
15.28
15.17
14.98
14.70
14.32
13.86
13.20
12.12
10.44
8.12
5.29
2.23
-0.76
-3.50
-5.96
-8.30
-10.70
-13.30
-16.12
-19.08
-22.14
-25.26
-28.57
-32.17
-35.99
-39.69
-42.62
-44.00
-43.15
-39.78
-34.06
-26.60
-18.27
-9.91
-2.19
4.47
9.90
14.08
17.06
18.95
19.81
19.81
19.21
18.35
17.63
17.32
17.45
17.81
18.04
17.82
17.07
15.96
14.83
14.04
13.73
13.82
14.00
13.93
13.31
11.96
9.86
7.12
3.93
0.54
-2.86
-6.15
-9.29
-12.30
-15.30
-18.44
-21.93
-25.96
-30.61
-35.68
-40.57
-44.33
-45.88
-44.39
-39.60
-32.02
-22.73
-13.02
-3.99
3.73
9.98
14.93
18.79
21.70
23.70
24.80
25.08
24.78
24.19
23.61
23.26
23.25
23.56
24.02
24.38
24.40
23.90
22.86
21.39
19.67
17.87
16.04
14.13
11.96
9.46
6.59
3.48
0.31
-2.72
-5.52
-8.10
-10.57
-13.09
-15.82
-18.90
-22.43
-26.44
-30.89
-35.49
-39.69
-42.61
-43.32
-41.10
-35.79
-27.90
-18.49
-8.84
-0.01
7.46
13.48
18.20
21.79
24.26
25.56
25.77
25.19
24.29
23.57
23.34
23.57
24.10
24.67
25.13
25.45
25.64
25.64
25.31
24.48
23.01
20.90
18.28
15.35
12.29
9.21
6.10
2.92
-0.39
-3.77
-7.12
-10.25
-13.07
-15.62
-18.11
-20.85
-24.15
-28.15
-32.83
-37.90
-42.88
-47.12
-49.89
-50.49
-48.46
-43.67
-36.47
-27.57
-17.91
-8.41
0.20
7.52
13.43
17.95
21.16
23.25
24.38
24.79
24.76
24.53
24.31
24.24
24.38
24.74
25.24
25.75
26.14
26.22
25.86
24.95
23.49
21.55
19.23
16.66
13.93
11.09
8.20
5.27
2.36
-0.48
-3.27
-6.02
-8.83
-11.77
-14.91
-18.20
-21.57
-24.90
-28.24
-31.72
-35.55
-39.75
-43.98
-47.49
-49.29
-48.46
-44.56
-37.80
-29.08
-19.61
-10.55
-2.66
3.83
9.12
13.53
17.31
20.52
23.09
24.89
25.93
26.34
26.39
26.37
26.45
26.71
27.09
27.46
27.74
27.89
27.88
27.64
27.03
25.88
24.02
21.38
18.05
14.21
10.09
5.91
1.86
-1.93
-5.40
-8.55
-11.39
-14.02
-16.53
-19.04
-21.63
-24.42
-27.51
-31.02
-35.01
-39.33
-43.53
-46.86
-48.37
-47.21
-42.97
-35.88
-26.83
-17.10
-7.92
-0.14
5.93
10.42
13.66
15.95
17.44
18.19
18.31
18.01
17.59
17.29
17.22
17.37
17.61
17.88
18.15
18.42
18.67
18.80
18.71
18.29
17.54
16.47
15.10
13.36
11.13
8.33
5.02
1.45
-2.04
-5.18
-7.84
-10.13
-12.26
-14.54
-17.27
-20.67
-24.82
-29.54
-34.34
-38.41
-40.80
-40.68
-37.63
-31.82
-23.90
-14.84
-5.63
2.94
10.31
16.11
20.13
22.29
22.75
21.83
20.05
17.99
16.17
14.92
14.31
14.27
14.59
15.07
15.55
15.92
16.09
15.98
15.52
14.63
13.23
11.30
8.84
5.91
2.61
-0.90
-4.43
-7.77
-10.82
-13.53
-16.05
-18.65
-21.69
-25.35
-29.51
-33.69
-37.02
-38.57
-37.65
-34.02
-28.00
-20.38
-12.08
-3.91
3.49
9.74
14.56
17.83
19.47
19.61
18.60
16.98
15.32
14.10
13.60
13.77
14.37
15.03
15.43
15.41
14.94
14.08
12.95
11.60
10.02
8.21
6.13
3.80
1.24
-1.50
-4.33
-7.16
-9.89
-12.47
-14.96
-17.57
-20.61
-24.35
-28.89
-33.99
-39.02
-43.08
-45.19
-44.55
-40.87
-34.38
-25.87
-16.43
-7.16
1.10
7.88
13.11
16.89
19.37
20.66
20.82
19.98
18.43
16.61
15.05
14.16
14.07
14.63
15.44
16.07
16.29
16.11
15.71
15.29
14.82
14.11
12.79
10.61
7.61
4.08
0.51
-2.61
-5.11
-7.08
-8.90
-11.06
-13.97
-17.93
-23.01
-29.03
-35.49
-41.53
-46.04
-47.87
-46.25
-41.06
-32.96
-23.15
-13.00
-3.55
4.61
11.41
16.95
21.34
24.56
26.53
27.25
26.91
25.90
24.64
23.56
22.85
22.54
22.48
22.45
22.21
21.65
20.75
19.62
18.39
17.09
15.62
13.80
11.46
8.58
5.36
2.12
-0.84
-3.38
-5.62
-7.82
-10.31
-13.35
-17.09
-21.55
-26.65
-32.12
-37.54
-42.21
-45.29
-45.97
-43.75
-38.60
-30.99
-21.84
-12.22
-3.05
5.10
12.01
17.69
22.22
25.67
28.02
29.35
29.79
29.60
29.10
28.52
28.03
27.68
27.49
27.44
27.51
27.60
27.62
27.42
26.89
26.00
24.78
23.23
21.34
19.08
16.39
13.28
9.79
6.03
2.13
-1.77
-5.54
-9.10
-12.42
-15.62
-18.91
-22.57
-26.84
-31.79
-37.21
-42.53
-46.88
-49.31
-48.98
-45.53
-39.13
-30.48
-20.63
-10.64
-1.37
6.69
13.38
18.73
22.79
25.62
27.29
27.95
27.89
27.52
27.24
27.36
27.90
28.71
29.54
30.15
30.48
30.57
30.52
30.36
30.00
29.26
27.93
25.91
23.23
20.12
16.88
13.83
11.09
8.58
6.10
3.41
0.37
-2.98
-6.43
-9.73
-12.76
-15.57
-18.39
-21.48
-25.10
-29.41
-34.42
-40.00
-45.77
-51.06
-54.94
-56.38
-54.56
-49.19
-40.69
-30.14
-18.88
-8.17
1.20
8.93
15.13
19.97
23.61
26.10
27.51
28.02
27.97
27.74
27.66
27.89
28.40
29.07
29.72
30.24
30.59
30.74
30.68
30.34
29.62
28.38
26.54
24.11
21.25
18.24
15.34
12.74
10.43
8.23
5.85
3.05
-0.24
-3.88
-7.56
-10.97
-13.88
-16.27
-18.34
-20.39
-22.79
-25.82
-29.71
-34.46
-39.87
-45.40
-50.17
-53.08
-53.15
-49.85
-43.30
-34.30
-24.02
-13.62
-3.99
4.43
11.47
17.15
21.48
24.50
26.34
27.24
27.48
27.35
27.04
26.63
26.17
25.72
25.38
25.22
25.31
25.62
26.02
26.35
26.40
26.01
25.08
23.57
21.56
19.17
16.60
14.03
11.64
9.44
7.31
5.01
2.26
-1.09
-4.98
-9.16
-13.27
-17.01
-20.30
-23.25
-26.19
-29.48
-33.43
-38.12
-43.27
-48.21
-51.95
-53.45
-51.93
-47.18
-39.68
-30.45
-20.73
-11.60
-3.72
2.72
7.86
12.00
15.37
18.06
20.10
21.49
22.30
22.72
23.00
23.34
23.84
24.40
24.83
24.93
24.62
23.98
23.15
22.25
21.26
20.01
18.32
16.10
13.43
10.53
7.70
5.10
2.72
0.40
-2.04
-4.75
-7.67
-10.56
-13.13
-15.16
-16.70
-18.06
-19.73
-22.14
-25.55
-29.83
-34.50
-38.81
-41.90
-42.96
-41.41
-37.12
-30.47
-22.29
-13.67
-5.64
1.12
6.40
10.36
13.32
15.51
17.02
17.85
18.02
17.64
16.93
16.19
15.70
15.69
16.26
17.38
18.77
20.05
20.79
20.70
19.73
18.07
16.05
13.92
11.78
9.55
7.05
4.17
0.98
-2.30
-5.41
-8.15
-10.52
-12.69
-14.92
-17.49
-20.54
-24.11
-28.08
-32.25
-36.30
-39.77
-42.09
-42.66
-41.02
-36.99
-30.85
-23.23
-14.99
-6.96
0.20
6.17
10.81
14.12
16.15
16.97
16.73
15.71
14.37
13.24
12.77
13.18
14.37
16.00
17.63
18.87
19.50
19.50
18.97
18.06
16.87
15.41
13.60
11.30
8.50
5.27
1.83
-1.52
-4.55
-7.17
-9.49
-11.81
-14.46
-17.72
-21.73
-26.48
-31.81
-37.32
-42.40
-46.25
-48.04
-47.07
-43.08
-36.33
-27.54
-17.76
-8.10
0.55
7.57
12.75
16.12
17.94
18.55
18.40
17.92
17.44
17.18
17.24
17.64
18.33
19.23
20.20
21.07
21.62
21.67
21.19
20.23
18.95
17.45
15.71
13.62
11.03
7.91
4.40
0.75
-2.75
-5.90
-8.64
-11.08
-13.45
-16.10
-19.36
-23.48
-28.54
-34.24
-40.00
-44.94
-48.09
-48.61
-46.09
-40.58
-32.70
-23.39
-13.68
-4.46
3.65
10.36
15.58
19.36
21.80
23.10
23.52
23.36
22.94
22.46
22.07
21.82
21.76
21.94
22.32
22.83
23.28
23.41
22.98
21.90
20.20
18.02
15.50
12.75
9.79
6.63
3.29
-0.20
-3.74
-7.32
-10.86
-14.32
-17.62
-20.71
-23.65
-26.68
-30.16
-34.36
-39.25
-44.21
-48.15
-49.79
-48.15
-42.96
-34.79
-24.82
-14.41
-4.67
3.80
10.87
16.62
21.15
24.46
26.48
27.27
27.08
26.31
25.43
24.83
24.67
24.86
25.19
25.38
25.31
24.98
24.51
24.01
23.45
22.62
21.30
19.24
16.38
12.84
8.86
4.75
0.77
-2.87
-6.05
-8.73
-11.02
-13.12
-15.37
-18.08
-21.48
-25.60
-30.29
-35.16
-39.57
-42.72
-43.76
-42.08
-37.51
-30.47
-21.95
-13.11
-4.99
1.86
7.40
11.93
15.77
19.05
21.66
23.42
24.26
24.34
24.03
23.76
23.88
24.51
25.51
26.58
27.40
27.75
27.57
26.92
25.89
24.55
22.90
20.94
18.69
16.21
13.55
10.76
7.79
4.55
0.96
-2.94
-7.00
-10.97
-14.64
-17.93
-20.95
-24.03
-27.54
-31.81
-36.89
-42.47
-47.86
-52.11
-54.28
-53.63
-49.92
-43.39
-34.73
-24.92
-14.94
-5.62
2.49
9.18
14.52
18.65
21.78
24.08
25.65
26.64
27.24
27.67
28.13
28.70
29.31
29.80
30.01
29.87
29.42
28.77
27.99
27.04
25.83
24.21
22.08
19.48
16.57
13.57
10.64
7.83
5.00
1.93
-1.56
-5.51
-9.65
-13.65
-17.18
-20.14
-22.74
-25.45
-28.75
-32.95
-38.00
-43.39
-48.30
-51.71
-52.71
-50.68
-45.53
-37.80
-28.48
-18.75
-9.65
-1.86
4.41
9.31
13.12
16.12
18.42
20.03
20.94
21.20
21.00
20.65
20.41
20.51
21.03
21.88
22.89
23.78
24.35
24.34
23.66
22.26
20.29
17.93
15.48
13.18
11.10
9.18
7.20
4.93
2.22
-0.91
-4.31
-7.72
-10.92
-13.78
-16.33
-18.80
-21.53
-24.90
-29.13
-34.11
-39.28
-43.73
-46.38
-46.39
-43.37
-37.60
-29.81
-21.04
-12.26
-4.15
2.89
8.80
13.63
17.49
20.48
22.60
23.88
24.37
24.16
23.52
22.75
22.21
22.15
22.62
23.44
24.29
24.79
24.64
23.75
22.20
20.22
18.00
15.66
13.20
10.55
7.70
4.71
1.73
-1.10
-3.69
-6.07
-8.31
-10.50
-12.73
-15.07
-17.63
-20.54
-23.99
-28.03
-32.48
-36.85
-40.39
-42.23
-41.64
-38.28
-32.33
-24.48
-15.74
-7.12
0.60
7.02
12.07
15.89
18.61
20.29
20.97
20.78
20.03
19.14
18.60
18.73
19.60
21.04
22.72
24.32
25.65
26.58
27.10
27.17
26.69
25.56
23.74
21.34
18.59
15.77
13.07
10.51
7.99
5.38
2.61
-0.23
-3.00
-5.59
-8.01
-10.42
-13.11
-16.32
-20.15
-24.49
-28.95
-32.94
-35.76
-36.70
-35.27
-31.29
-25.10
-17.41
-9.19
-1.38
5.33
10.59
14.37
16.77
17.93
17.93
16.87
14.99
12.71
10.62
9.29
9.12
10.12
11.92
13.91
15.51
16.34
16.35
15.73
14.80
13.74
12.51
10.91
8.70
5.79
2.31
-1.45
-5.08
-8.36
-11.20
-13.72
-16.12
-18.60
-21.31
-24.34
-27.65
-31.06
-34.26
-36.76
-38.03
-37.58
-35.14
-30.74
-24.63
-17.30
-9.37
-1.53
5.64
11.59
16.01
18.73
19.80
19.45
18.05
16.06
13.94
12.12
10.94
10.52
10.82
11.65
12.72
13.77
14.58
14.96
14.75
13.80
11.97
9.28
5.88
2.11
-1.62
-4.93
-7.64
-9.85
-11.90
-14.27
-17.36
-21.38
-26.13
-31.06
-35.32
-37.96
-38.21
-35.73
-30.65
-23.58
-15.42
-7.11
0.60
7.24
12.58
16.56
19.21
20.62
20.88
20.23
18.95
17.36
15.74
14.30
13.17
12.40
12.02
12.02
12.29
12.67
12.90
12.70
11.85
10.29
8.09
5.46
2.63
-0.19
-2.86
-5.36
-7.82
-10.44
-13.51
-17.23
-21.66
-26.51
-31.21
-34.99
-37.06
-36.85
-34.13
-29.07
-22.23
-14.35
-6.23
1.39
8.01
13.38
17.49
20.47
22.45
23.54
23.74
23.18
22.07
20.75
19.55
18.65
17.99
17.45
16.84
16.10
15.22
14.19
12.94
11.32
9.17
6.50
3.44
0.23
-2.94
-5.94
-8.82
-11.65
-14.57
-17.73
-21.26
-25.34
-29.97
-34.86
-39.34
-42.41
-43.08
-40.68
-35.21
-27.37
-18.33
-9.36
-1.42
5.02
9.97
13.65
16.29
18.03
18.87
18.86
18.19
17.19
16.27
15.76
15.80
16.25
16.86
17.34
17.48
17.21
16.59
15.65
14.41
12.81
10.75
8.18
5.16
1.88
-1.41
-4.43
-7.09
-9.48
-11.89
-14.74
-18.31
-22.67
-27.51
-32.21
-35.97
-37.95
-37.53
-34.42
-28.84
-21.42
-13.09
-4.79
2.74
9.12
14.25
18.24
21.17
23.04
23.85
23.67
22.81
21.71
20.81
20.44
20.63
21.19
21.80
22.17
22.16
21.69
20.78
19.33
17.25
14.43
10.87
6.76
2.40
-1.83
-5.68
-9.08
-12.09
-14.96
-17.94
-21.25
-24.97
-28.96
-32.86
-36.00
-37.62
-36.98
-33.65
-27.74
-19.92
-11.23
-2.73
4.76
10.87
15.54
18.91
21.11
22.21
22.30
21.61
20.56
19.62
19.14
19.22
19.70
20.31
20.84
21.23
21.45
21.43
20.99
19.86
17.87
15.01
11.50
7.64
3.73
-0.12
-3.87
-7.59
-11.33
-15.14
-19.09
-23.26
-27.65
-32.06
-35.90
-38.28
-38.26
-35.25
-29.28
-21.10
-11.91
-2.99
4.73
10.83
15.35
18.54
20.68
21.87
22.23
21.94
21.29
20.65
20.26
20.16
20.17
20.04
19.59
18.78
17.78
16.75
15.81
14.91
13.81
12.25
10.04
7.14
3.71
0.05
-3.50
-6.72
-9.51
-11.97
-14.36
-16.95
-19.99
-23.59
-27.65
-31.81
-35.40
-37.60
-37.57
-34.79
-29.23
-21.52
-12.73
-4.04
3.61
9.76
14.39
17.71
19.95
21.21
21.53
21.02
19.99
18.89
18.17
18.07
18.53
19.23
19.74
19.74
19.14
18.13
17.03
16.13
15.51
14.93
13.91
12.04
9.11
5.36
1.28
-2.53
-5.75
-8.39
-10.75
-13.21
-16.02
-19.23
-22.74
-26.47
-30.36
-34.24
-37.68
-39.97
-40.24
-37.78
-32.42
-24.62
-15.43
-6.11
2.26
8.99
13.91
17.12
18.92
19.57
19.32
18.41
17.14
15.90
15.13
15.12
15.93
17.35
18.91
20.15
20.75
20.67
20.05
19.11
17.95
16.52
14.62
12.12
9.02
5.52
1.92
-1.51
-4.63
-7.43
-9.99
-12.45
-14.96
-17.66
-20.74
-24.33
-28.39
-32.65
-36.52
-39.17
-39.79
-37.82
-33.13
-26.15
-17.72
-8.86
-0.48
6.77
12.62
17.01
19.96
21.51
21.76
20.90
19.34
17.65
16.39
15.93
16.30
17.25
18.40
19.42
20.14
20.59
20.82
20.87
20.62
19.87
18.42
16.11
12.94
9.08
4.86
0.63
-3.28
-6.67
-9.54
-12.04
-14.39
-16.83
-19.56
-22.78
-26.60
-31.03
-35.80
-40.29
-43.60
-44.74
-42.99
-38.21
-30.94
-22.27
-13.41
-5.30
1.61
7.34
12.10
16.03
19.08
21.08
21.91
21.71
20.82
19.76
18.99
18.80
19.24
20.17
21.32
22.39
23.08
23.17
22.53
21.16
19.22
16.91
14.46
12.03
9.66
7.29
4.84
2.23
-0.53
-3.39
-6.29
-9.13
-11.90
-14.63
-17.41
-20.40
-23.78
-27.75
-32.34
-37.31
-42.01
-45.50
-46.78
-45.10
-40.34
-33.04
-24.21
-15.05
-6.54
0.75
6.68
11.41
15.20
18.23
20.57
22.26
23.32
23.91
24.20
24.45
24.80
25.30
25.86
26.33
26.58
26.49
26.03
25.21
23.99
22.38
20.38
18.01
15.36
12.50
9.52
6.50
3.51
0.60
-2.21
-4.93
-7.60
-10.30
-13.12
-16.17
-19.55
-23.36
-27.67
-32.44
-37.41
-42.06
-45.67
-47.39
-46.56
-42.86
-36.50
-28.21
-18.97
-9.81
-1.51
5.48
11.08
15.44
18.78
21.28
23.07
24.21
24.74
24.70
24.27
23.66
23.17
23.01
23.21
23.65
24.00
23.93
23.31
22.22
20.88
19.53
18.23
16.83
15.06
12.72
9.81
6.59
3.39
0.50
-2.01
-4.29
-6.56
-9.05
-11.88
-15.07
-18.59
-22.46
-26.75
-31.36
-36.01
-40.12
-42.89
-43.57
-41.65
-37.08
-30.31
-22.15
-13.54
-5.35
1.83
7.71
12.23
15.48
17.62
18.84
19.35
19.36
19.11
18.82
18.69
18.86
19.39
20.18
21.08
21.88
22.35
22.36
21.82
20.79
19.39
17.79
16.11
14.42
12.68
10.82
8.72
6.33
3.70
0.94
-1.86
-4.68
-7.56
-10.57
-13.69
-16.86
-20.02
-23.17
-26.47
-30.12
-34.14
-38.17
-41.50
-43.18
-42.38
-38.71
-32.43
-24.35
-15.54
-7.02
0.49
6.61
11.33
14.75
17.06
18.43
19.03
19.06
18.70
18.18
17.70
17.42
17.45
17.78
18.30
18.84
19.18
19.20
18.86
18.23
17.38
16.33
14.99
13.23
10.93
8.11
4.91
1.61
-1.54
-4.40
-6.93
-9.20
-11.34
-13.52
-15.90
-18.63
-21.88
-25.71
-29.93
-34.11
-37.56
-39.46
-39.14
-36.24
-30.87
-23.60
-15.32
-6.95
0.66
6.98
11.73
14.88
16.49
16.78
16.06
14.72
13.22
11.99
11.32
11.29
11.75
12.42
12.93
13.05
12.65
11.82
10.71
9.52
8.36
7.19
5.90
4.31
2.35
0.02
-2.57
-5.26
-7.90
-10.46
-12.97
-15.57
-18.45
-21.75
-25.47
-29.38
-33.10
-36.05
-37.65
-37.36
-34.89
-30.27
-23.81
-16.20
-8.27
-0.85
5.40
10.16
13.44
15.39
16.29
16.34
15.76
14.82
13.85
13.15
12.95
13.31
14.07
15.00
15.87
16.48
16.69
16.42
15.58
14.12
12.04
9.42
6.40
3.09
-0.35
-3.83
-7.18
-10.32
-13.21
-15.99
-18.95
-22.41
-26.58
-31.33
-36.06
-39.85
-41.71
-40.92
-37.32
-31.34
-23.87
-15.86
-8.18
-1.38
4.30
8.79
12.11
14.31
15.47
15.74
15.35
14.56
13.65
12.85
12.32
12.15
12.35
12.86
13.55
14.28
14.92
15.33
15.41
15.04
14.06
12.34
9.84
6.66
3.13
-0.36
-3.42
-5.87
-7.82
-9.62
-11.81
-14.86
-19.02
-24.15
-29.71
-34.78
-38.32
-39.41
-37.55
-32.81
-25.79
-17.49
-8.93
-1.02
5.72
11.08
15.08
17.86
19.61
20.55
20.97
21.21
21.57
22.23
23.15
24.06
24.60
24.47
23.60
22.19
20.60
19.18
18.07
17.12
15.94
14.19
11.62
8.28
4.47
0.61
-2.94
-6.01
-8.66
-11.18
-13.92
-17.24
-21.36
-26.26
-31.67
-37.01
-41.48
-44.20
-44.42
-41.75
-36.37
-28.96
-20.56
-12.23
-4.73
1.66
7.06
11.75
15.87
19.29
21.75
23.05
23.23
22.67
21.95
21.53
21.63
22.11
22.67
22.98
22.92
22.40
21.54
20.40
19.04
17.48
15.71
13.65
11.18
8.25
4.93
1.40
-2.05
-5.23
-8.08
-10.83
-13.78
-17.23
-21.30
-25.89
-30.64
-35.09
-38.68
-40.85
-41.08
-39.05
-34.77
-28.61
-21.24
-13.47
-6.00
0.74
6.59
11.57
15.74
19.09
21.59
23.19
24.02
24.33
24.42
24.58
24.95
25.50
26.04
26.35
26.19
25.47
24.22
22.54
20.64
18.66
16.76
14.94
13.13
11.10
8.69
5.85
2.67
-0.63
-3.82
-6.77
-9.50
-12.13
-14.86
-17.87
-21.32
-25.30
-29.75
-34.41
-38.73
-41.90
-43.03
-41.41
-36.84
-29.75
-21.13
-12.15
-3.84
3.21
8.88
13.32
16.77
19.29
20.89
21.56
21.44
20.92
20.49
20.51
21.19
22.37
23.73
24.90
25.61
25.80
25.51
24.93
24.18
23.38
22.46
21.24
19.46
16.90
13.55
9.61
5.45
1.45
-2.09
-5.14
-7.80
-10.23
-12.61
-15.11
-17.94
-21.37
-25.59
-30.51
-35.64
-40.06
-42.63
-42.48
-39.27
-33.36
-25.58
-16.96
-8.39
-0.48
6.45
12.28
16.89
20.24
22.35
23.37
23.58
23.35
23.01
22.73
22.59
22.59
22.69
22.90
23.18
23.49
23.70
23.61
23.07
21.96
20.31
18.26
16.03
13.76
11.57
9.45
7.37
5.23
2.96
0.49
-2.23
-5.21
-8.41
-11.78
-15.30
-18.96
-22.77
-26.80
-30.99
-35.13
-38.67
-40.83
-40.80
-38.07
-32.66
-25.16
-16.57
-7.98
-0.18
6.40
11.68
15.74
18.65
20.48
21.32
21.42
21.06
20.58
20.21
20.02
19.97
20.02
20.16
20.36
20.65
20.95
21.16
21.17
20.96
20.49
19.72
18.58
16.99
14.93
12.45
9.69
6.80
3.86
0.88
-2.23
-5.52
-8.94
-12.38
-15.71
-18.95
-22.14
-25.27
-28.04
-29.90
-30.12
-28.17
-23.95
-17.96
-11.10
-4.34
1.60
6.42
10.15
12.94
14.83
15.75
15.61
14.56
13.01
11.56
10.77
10.88
11.75
12.93
13.87
14.24
13.99
13.26
12.26
11.08
9.66
7.85
5.54
2.79
-0.18
-3.12
-5.80
-8.12
-10.18
-12.17
-14.29
-16.75
-19.66
-23.06
-26.93
-31.05
-35.00
-38.14
-39.74
-39.18
-36.20
-30.99
-24.15
-16.49
-8.80
-1.69
4.49
9.56
13.49
16.32
18.09
18.91
18.91
18.30
17.38
16.47
15.93
15.98
16.69
17.85
19.11
20.02
20.23
19.54
17.98
15.68
12.86
9.72
6.38
3.03
-0.23
-3.26
-5.98
-8.42
-10.70
-13.00
-15.45
-18.13
-21.02
-24.14
-27.51
-31.16
-34.93
-38.43
-40.94
-41.59
-39.71
-35.16
-28.40
-20.40
-12.27
-4.91
1.19
5.92
9.48
12.15
14.20
15.82
17.16
18.35
19.37
20.22
20.80
21.06
21.06
21.01
21.13
21.56
22.24
22.90
23.22
22.91
21.89
20.29
18.29
16.07
13.66
11.04
8.14
5.01
1.73
-1.54
-4.73
-7.78
-10.77
-13.77
-16.88
-20.19
-23.80
-27.80
-32.09
-36.29
-39.76
-41.70
-41.36
-38.41
-33.07
-26.06
-18.32
-10.70
-3.73
2.40
7.76
12.38
16.21
19.09
20.95
21.88
22.14
22.06
21.91
21.79
21.67
21.46
21.09
20.61
20.11
19.67
19.32
18.98
18.52
17.70
16.31
14.24
11.57
8.56
5.56
2.88
0.64
-1.24
-2.99
-4.81
-6.75
-8.73
-10.61
-12.35
-14.18
-16.48
-19.67
-23.95
-29.14
-34.70
-39.85
-43.74
-45.65
-45.13
-42.03
-36.53
-29.18
-20.75
-12.19
-4.36
2.18
7.26
11.05
13.95
16.30
18.30
19.93
21.07
21.67
21.78
21.64
21.51
21.70
22.26
23.14
24.08
24.83
25.19
25.12
24.67
23.88
22.79
21.30
19.39
17.03
14.30
11.32
8.21
5.01
1.69
-1.77
-5.35
-8.95
-12.39
-15.53
-18.25
-20.58
-22.66
-24.74
-27.18
-30.26
-34.09
-38.35
-42.35
-45.06
-45.53
-43.18
-38.05
-30.80
-22.44
-13.96
-6.12
0.68
6.31
10.79
14.20
16.69
18.47
19.79
20.91
21.92
22.81
23.43
23.66
23.48
23.04
22.58
22.32
22.35
22.60
22.85
22.84
22.38
21.36
19.78
17.74
15.37
12.82
10.25
7.84
5.68
3.72
1.80
-0.31
-2.75
-5.51
-8.41
-11.27
-13.91
-16.33
-18.73
-21.40
-24.65
-28.62
-33.24
-38.07
-42.43
-45.39
-46.14
-44.10
-39.22
-31.98
-23.33
-14.43
-6.32
0.35
5.41
9.09
11.83
13.98
15.69
16.94
17.73
18.17
18.55
19.16
20.16
21.50
22.90
24.07
24.80
25.03
24.83
24.25
23.31
22.00
20.27
18.15
15.73
13.21
10.73
8.39
6.26
4.31
2.48
0.60
-1.48
-3.88
-6.58
-9.43
-12.18
-14.61
-16.67
-18.57
-20.67
-23.33
-26.71
-30.58
-34.42
-37.46
-38.89
-38.10
-34.84
-29.33
-22.27
-14.65
-7.41
-1.26
3.57
7.18
9.80
11.64
12.78
13.23
13.11
12.68
12.34
12.48
13.28
14.68
16.39
18.00
19.10
19.45
18.97
17.87
16.50
15.23
14.22
13.39
12.41
10.91
8.71
5.93
2.95
0.22
-1.98
-3.66
-5.10
-6.61
-8.38
-10.38
-12.46
-14.56
-16.85
-19.64
-23.18
-27.37
-31.62
-34.95
-36.32
-35.07
-31.09
-24.92
-17.46
-9.69
-2.40
3.88
8.87
12.49
14.74
15.70
15.50
14.35
12.59
10.69
9.17
8.50
8.89
10.23
12.07
13.85
15.12
15.72
15.80
15.66
15.54
15.44
15.05
14.01
12.03
9.06
5.34
1.32
-2.55
-5.96
-8.73
-10.97
-12.87
-14.73
-16.92
-19.75
-23.37
-27.68
-32.18
-36.00
-38.11
-37.60
-34.09
-27.89
-19.94
-11.45
-3.53
3.11
8.30
12.20
15.08
17.10
18.30
18.68
18.38
17.69
17.07
16.96
17.52
18.63
19.88
20.79
21.03
20.59
19.67
18.61
17.59
16.47
14.79
12.12
8.23
3.30
-2.08
-7.17
-11.36
-14.42
-16.55
-18.23
-20.03
-22.39
-25.47
-29.12
-33.00
-36.53
-39.00
-39.71
-38.15
-34.19
-28.17
-20.84
-13.11
-5.84
0.40
5.40
9.23
12.13
14.29
15.79
16.64
16.87
16.62
16.10
15.59
15.25
15.12
15.11
15.06
14.92
14.69
14.46
14.26
13.97
13.31
11.97
9.72
6.51
2.57
-1.70
-5.88
-9.61
-12.72
-15.30
-17.62
-19.98
-22.69
-25.90
-29.56
-33.38
-36.80
-39.08
-39.38
-37.10
-32.02
-24.58
-15.75
-6.82
1.11
7.41
12.03
15.33
17.72
19.44
20.46
20.71
20.21
19.24
18.27
17.77
17.98
18.81
19.91
20.79
21.15
20.90
20.25
19.48
18.86
18.42
17.93
16.97
15.14
12.28
8.52
4.27
0.05
-3.74
-7.00
-9.90
-12.81
-16.12
-20.08
-24.74
-29.96
-35.39
-40.50
-44.63
-46.97
-46.82
-43.79
-38.02
-30.16
-21.29
-12.52
-4.67
1.92
7.32
11.83
15.65
18.81
21.19
22.68
23.29
23.28
23.03
22.92
23.18
23.84
24.78
25.82
26.73
27.34
27.48
27.04
25.96
24.30
22.15
19.67
17.03
14.38
11.84
9.46
7.21
4.93
2.44
-0.43
-3.72
-7.38
-11.18
-14.92
-18.48
-21.98
-25.68
-29.88
-34.76
-40.11
-45.37
-49.58
-51.78
-51.15
-47.44
-40.96
-32.54
-23.23
-14.02
-5.61
1.63
7.69
12.65
16.61
19.67
21.90
23.40
24.33
24.88
25.23
25.50
25.75
26.01
26.30
26.67
27.12
27.63
28.12
28.44
28.43
27.94
26.84
25.12
22.83
20.16
17.37
14.73
12.37
10.25
8.18
5.94
3.40
0.54
-2.49
-5.51
-8.37
-11.10
-13.92
-17.12
-21.02
-25.77
-31.18
-36.68
-41.41
-44.38
-44.82
-42.37
-37.20
-29.99
-21.68
-13.30
-5.65
0.78
5.90
9.88
12.98
15.45
17.43
19.01
20.25
21.25
22.15
23.06
24.03
24.99
25.81
26.39
26.73
26.91
27.06
27.29
27.57
27.78
27.66
26.93
25.39
23.00
19.96
16.64
13.46
10.68
8.33
6.19
3.92
1.29
-1.69
-4.78
-7.64
-10.03
-11.99
-13.83
-15.97
-18.79
-22.46
-26.99
-32.17
-37.62
-42.72
-46.74
-48.81
-48.28
-44.81
-38.67
-30.62
-21.70
-12.94
-5.06
1.58
6.96
11.21
14.46
16.82
18.40
19.39
20.02
20.61
21.38
22.47
23.84
25.32
26.64
27.60
28.04
27.99
27.58
26.95
26.20
25.28
24.04
22.31
20.03
17.34
14.58
12.14
10.22
8.77
7.44
5.84
3.71
1.05
-1.89
-4.80
-7.49
-9.94
-12.34
-14.90
-17.79
-21.07
-24.78
-28.95
-33.52
-38.24
-42.55
-45.63
-46.60
-44.89
-40.40
-33.61
-25.35
-16.59
-8.12
-0.48
6.05
11.37
15.46
18.38
20.23
21.20
21.54
21.55
21.49
21.58
21.97
22.64
23.54
24.48
25.30
25.89
26.17
26.09
25.59
24.56
22.86
20.39
17.25
13.69
10.10
6.82
4.03
1.70
-0.41
-2.52
-4.77
-7.13
-9.47
-11.65
-13.63
-15.51
-17.46
-19.71
-22.43
-25.71
-29.45
-33.31
-36.67
-38.74
-38.82
-36.51
-31.92
-25.57
-18.25
-10.75
-3.69
2.51
7.70
11.79
14.77
16.66
17.55
17.60
17.05
16.26
15.61
15.42
15.87
16.91
18.32
19.72
20.78
21.31
21.29
20.72
19.64
18.07
16.01
13.58
10.96
8.37
5.95
3.71
1.54
-0.70
-3.05
-5.46
-7.81
-10.03
-12.12
-14.25
-16.61
-19.38
-22.62
-26.23
-29.96
-33.37
-35.86
-36.83
-35.77
-32.49
-27.14
-20.30
-12.75
-5.32
1.37
6.96
11.33
14.50
16.48
17.33
17.14
16.11
14.55
12.92
11.69
11.19
11.53
12.57
13.93
15.21
16.09
16.48
16.44
16.06
15.35
14.19
12.42
9.96
6.89
3.45
-0.04
-3.33
-6.25
-8.81
-11.10
-13.26
-15.52
-18.07
-21.03
-24.39
-27.92
-31.18
-33.59
-34.56
-33.62
-30.56
-25.50
-18.97
-11.77
-4.76
1.31
6.08
9.46
11.64
12.83
13.23
12.96
12.16
11.09
10.11
9.52
9.51
10.01
10.76
11.42
11.79
11.81
11.62
11.38
11.14
10.80
10.07
8.65
6.41
3.49
0.23
-2.93
-5.69
-8.03
-10.19
-12.52
-15.39
-18.96
-23.19
-27.88
-32.60
-36.78
-39.69
-40.63
-39.10
-35.04
-28.91
-21.55
-13.94
-6.88
-0.80
4.23
8.31
11.56
14.02
15.64
16.45
16.61
16.35
15.95
15.59
15.39
15.36
15.52
15.89
16.44
17.09
17.65
17.89
17.59
16.64
14.97
12.65
9.78
6.52
3.12
-0.19
-3.19
-5.85
-8.30
-10.88
-13.98
-17.93
-22.77
-28.17
-33.55
-38.08
-40.92
-41.43
-39.28
-34.62
-28.00
-20.32
-12.47
-5.21
1.08
6.37
10.81
14.56
17.63
19.86
21.09
21.34
20.84
20.07
19.52
19.45
19.84
20.43
20.83
20.77
20.24
19.43
18.58
17.84
17.07
15.97
14.16
11.44
7.89
3.89
-0.06
-3.54
-6.39
-8.82
-11.22
-14.03
-17.58
-21.92
-26.90
-32.17
-37.23
-41.44
-44.14
-44.64
-42.52
-37.74
-30.78
-22.49
-13.95
-6.04
0.68
6.14
10.57
14.22
17.26
19.68
21.38
22.31
22.60
22.51
22.34
22.26
22.30
22.31
22.18
21.83
21.35
20.88
20.51
20.19
19.73
18.90
17.54
15.63
13.30
10.69
7.97
5.25
2.60
0.03
-2.45
-4.94
-7.61
-10.66
-14.29
-18.60
-23.58
-29.07
-34.80
-40.29
-44.89
-47.82
-48.33
-45.94
-40.63
-33.01
-24.06
-14.95
-6.62
0.43
6.16
10.86
14.86
18.39
21.42
23.84
25.51
26.42
26.77
26.82
26.82
26.93
27.19
27.55
27.96
28.40
28.89
29.37
29.72
29.64
28.82
27.05
24.32
20.91
17.28
13.88
10.98
8.58
6.39
4.09
1.44
-1.56
-4.71
-7.77
-10.60
-13.28
-16.08
-19.31
-23.24
-27.91
-33.13
-38.45
-43.26
-46.83
-48.47
-47.62
-44.02
-37.86
-29.73
-20.61
-11.51
-3.33
3.47
8.84
13.02
16.37
19.15
21.46
23.25
24.48
25.22
25.63
25.95
26.41
27.04
27.77
28.38
28.65
28.45
27.84
26.93
25.94
24.98
24.02
22.93
21.52
19.66
17.36
14.80
12.18
9.62
7.12
4.53
1.70
-1.45
-4.82
-8.20
-11.42
-14.45
-17.51
-20.94
-25.04
-29.81
-34.84
-39.33
-42.30
-42.90
-40.62
-35.60
-28.47
-20.19
-11.76
-3.97
2.75
8.28
12.62
15.83
17.93
19.00
19.27
19.09
18.88
18.94
19.38
20.11
20.96
21.75
22.41
22.90
23.19
23.23
22.94
22.22
21.01
19.30
17.15
14.67
12.01
9.38
6.95
4.82
2.91
1.08
-0.82
-2.86
-4.95
-6.94
-8.72
-10.32
-11.98
-14.10
-17.05
-21.03
-25.92
-31.23
-36.19
-39.91
-41.59
-40.79
-37.52
-32.19
-25.46
-18.12
-10.79
-3.96
2.09
7.20
11.30
14.37
16.47
17.72
18.31
18.48
18.47
18.50
18.72
19.21
19.97
20.93
21.90
22.63
22.89
22.52
21.51
19.99
18.14
16.16
14.15
12.09
9.99
7.82
5.62
3.40
1.19
-1.05
-3.39
-5.90
-8.66
-11.70
-15.08
-18.87
-23.10
-27.71
-32.41
-36.65
-39.69
-40.78
-39.40
-35.49
-29.51
-22.26
-14.65
-7.43
-1.04
4.39
8.84
12.30
14.65
15.81
15.88
15.17
14.24
13.59
13.56
14.18
15.23
16.30
17.05
17.26
16.93
16.20
15.29
14.38
13.52
12.62
11.47
9.88
7.71
5.01
1.96
-1.19
-4.21
-6.89
-9.14
-10.98
-12.54
-14.13
-16.09
-18.68
-21.95
-25.54
-28.80
-30.94
-31.27
-29.45
-25.60
-20.17
-13.78
-7.04
-0.47
5.53
10.60
14.43
16.78
17.56
16.97
15.40
13.44
11.66
10.48
10.08
10.40
11.20
12.13
12.90
13.30
13.29
12.91
12.26
11.39
10.29
8.93
7.31
5.48
3.56
1.63
-0.33
-2.36
-4.55
-6.97
-9.62
-12.53
-15.73
-19.22
-22.91
-26.52
-29.56
-31.42
-31.62
-29.87
-26.23
-21.09
-15.04
-8.71
-2.66
2.76
7.31
10.79
13.09
14.13
13.97
12.93
11.48
10.16
9.32
9.06
9.20
9.43
9.50
9.36
9.10
8.90
8.88
8.96
8.92
8.46
7.38
5.63
3.39
0.94
-1.40
-3.49
-5.43
-7.50
-10.05
-13.29
-17.24
-21.61
-25.94
-29.69
-32.27
-33.20
-32.11
-28.92
-23.80
-17.25
-10.00
-2.81
3.69
9.11
13.42
16.75
19.29
21.15
22.34
22.87
22.79
22.31
21.70
21.19
20.88
20.65
20.34
19.80
19.03
18.13
17.24
16.39
15.49
14.34
12.76
10.67
8.08
5.15
2.07
-1.03
-4.06
-7.07
-10.17
-13.54
-17.30
-21.54
-26.17
-30.83
-34.97
-37.86
-38.84
-37.45
-33.67
-27.97
-21.14
-14.04
-7.36
-1.46
3.63
8.04
11.89
15.21
17.86
19.74
20.77
21.06
20.89
20.64
20.65
21.10
21.89
22.70
23.10
22.77
21.69
20.10
18.37
16.81
15.44
14.02
12.17
9.62
6.37
2.72
-0.85
-3.96
-6.43
-8.38
-10.17
-12.26
-15.05
-18.77
-23.34
-28.40
-33.33
-37.29
-39.50
-39.40
-36.82
-32.05
-25.76
-18.79
-11.90
-5.59
-0.11
4.55
8.52
11.90
14.75
17.02
18.66
19.64
19.98
19.83
19.43
19.05
18.95
19.19
19.65
20.05
20.08
19.55
18.43
16.88
15.12
13.34
11.59
9.85
8.04
6.11
4.01
1.79
-0.51
-2.81
-5.08
-7.30
-9.54
-11.90
-14.49
-17.43
-20.75
-24.43
-28.35
-32.20
-35.51
-37.57
-37.73
-35.57
-31.10
-24.89
-17.86
-10.95
-4.81
0.36
4.68
8.38
11.54
14.03
15.67
16.37
16.36
16.07
16.05
16.70
18.04
19.80
21.43
22.46
22.64
22.09
21.13
20.12
19.19
18.21
16.91
15.02
12.47
9.41
6.08
2.73
-0.53
-3.67
-6.72
-9.67
-12.48
-15.16
-17.82
-20.66
-23.86
-27.46
-31.32
-34.96
-37.76
-39.03
-38.20
-35.05
-29.78
-23.02
-15.63
-8.42
-2.01
3.35
7.69
11.17
13.97
16.09
17.50
18.19
18.29
18.04
17.73
17.57
17.57
17.65
17.65
17.42
16.96
16.28
15.49
14.64
13.69
12.56
11.08
9.18
6.83
4.12
1.26
-1.50
-3.90
-5.84
-7.33
-8.59
-9.93
-11.73
-14.28
-17.69
-21.80
-26.25
-30.53
-34.13
-36.55
-37.42
-36.49
-33.67
-29.09
-23.09
-16.28
-9.35
-2.92
2.59
7.06
10.54
13.10
14.72
15.38
15.10
14.12
12.82
11.67
10.98
10.80
10.99
11.28
11.51
11.63
11.64
11.54
11.23
10.59
9.49
7.91
5.85
3.39
0.59
-2.41
-5.44
-8.31
-10.86
-13.08
-15.10
-17.19
-19.62
-22.51
-25.80
-29.22
-32.38
-34.83
-36.16
-35.92
-33.80
-29.65
-23.65
-16.34
-8.50
-1.04
5.36
10.36
14.01
16.57
18.33
19.46
19.99
19.88
19.15
18.01
16.75
15.73
15.16
15.00
15.05
14.99
14.60
13.79
12.65
11.28
9.68
7.71
5.19
2.08
-1.45
-5.02
-8.23
-10.82
-12.82
-14.49
-16.26
-18.47
-21.33
-24.85
-28.83
-32.79
-36.08
-37.85
-37.38
-34.26
-28.64
-21.23
-13.10
-5.31
1.38
6.69
10.66
13.51
15.40
16.37
16.49
15.91
14.99
14.10
13.53
13.35
13.39
13.41
13.26
13.00
12.81
12.86
13.05
13.13
12.70
11.44
9.23
6.24
2.81
-0.74
-4.12
-7.26
-10.17
-12.96
-15.80
-18.84
-22.18
-25.77
-29.30
-32.19
-33.71
-33.15
-30.10
-24.67
-17.49
-9.55
-1.87
4.78
10.07
14.01
16.79
18.60
19.51
19.62
19.09
18.23
17.43
16.96
16.83
16.83
16.70
16.29
15.72
15.19
14.84
14.57
14.04
12.84
10.75
7.78
4.19
0.35
-3.43
-6.95
-10.16
-13.15
-16.08
-19.23
-22.89
-27.19
-31.98
-36.72
-40.52
-42.40
-41.63
-37.97
-31.80
-23.98
-15.57
-7.49
-0.34
5.62
10.38
14.03
16.62
18.20
18.86
18.79
18.30
17.69
17.23
17.05
17.17
17.56
18.11
18.75
19.36
19.75
19.72
19.05
17.54
15.06
11.67
7.60
3.28
-0.77
-4.17
-6.80
-8.86
-10.84
-13.34
-16.79
-21.27
-26.43
-31.55
-35.72
-38.05
-37.91
-35.09
-29.86
-22.89
-15.06
-7.19
0.10
6.48
11.82
16.08
19.25
21.36
22.53
22.99
23.06
23.08
23.24
23.59
23.98
24.20
24.11
23.66
22.93
22.02
20.96
19.65
17.87
15.42
12.23
8.40
4.27
0.22
-3.42
-6.53
-9.20
-11.73
-14.49
-17.85
-22.04
-27.05
-32.53
-37.79
-41.91
-43.92
-43.11
-39.26
-32.80
-24.63
-15.86
-7.44
0.11
6.72
12.58
17.87
22.50
26.23
28.77
30.07
30.35
30.04
29.58
29.24
29.06
28.94
28.78
28.50
28.10
27.50
26.61
25.31
23.55
21.41
19.07
16.69
14.29
11.82
9.15
6.24
3.17
0.04
-3.11
-6.35
-9.96
-14.16
-19.07
-24.59
-30.38
-35.93
-40.63
-43.83
-44.91
-43.44
-39.25
-32.58
-24.09
-14.72
-5.42
3.07
10.39
16.43
21.28
25.06
27.85
29.71
30.73
31.07
30.95
30.62
30.25
29.90
29.55
29.05
28.31
27.27
25.92
24.30
22.49
20.51
18.36
16.02
13.48
10.77
7.95
5.13
2.36
-0.35
-3.00
-5.60
-8.16
-10.74
-13.49
-16.58
-20.28
-24.72
-29.86
-35.32
-40.40
-44.13
-45.55
-43.96
-39.19
-31.67
-22.30
-12.23
-2.54
6.07
13.27
19.05
23.51
26.74
28.79
29.76
29.81
29.28
28.57
28.03
27.89
28.10
28.43
28.57
28.21
27.23
25.65
23.69
21.57
19.42
17.25
14.98
12.50
9.78
6.89
3.99
1.21
-1.37
-3.80
-6.14
-8.48
-10.87
-13.42
-16.28
-19.64
-23.66
-28.24
-32.94
-37.01
-39.56
-39.87
-37.59
-32.85
-26.19
-18.40
-10.28
-2.53
4.35
10.06
14.49
17.71
19.82
21.01
21.46
21.36
21.01
20.73
20.83
21.53
22.80
24.44
26.07
27.31
27.91
27.78
27.01
25.73
24.09
22.20
20.06
17.65
14.95
11.94
8.73
5.43
2.21
-0.82
-3.63
-6.26
-8.82
-11.49
-14.46
-17.92
-22.00
-26.64
-31.54
-36.15
-39.73
-41.55
-41.08
-38.19
-33.12
-26.46
-19.02
-11.54
-4.63
1.33
6.22
10.02
12.80
14.66
15.68
15.98
15.76
15.31
14.92
14.86
15.28
16.16
17.37
18.65
19.77
20.52
20.79
20.53
19.81
18.71
17.32
15.70
13.87
11.88
9.71
7.37
4.87
2.22
-0.55
-3.43
-6.39
-9.42
-12.55
-15.83
-19.36
-23.19
-27.27
-31.37
-35.11
-37.92
-39.19
-38.43
-35.41
-30.30
-23.55
-15.86
-7.96
-0.54
5.93
11.14
14.98
17.44
18.71
19.07
18.88
18.48
18.14
18.04
18.23
18.69
19.32
19.98
20.52
20.75
20.62
20.14
19.40
18.55
17.58
16.38
14.69
12.31
9.20
5.58
1.83
-1.67
-4.68
-7.22
-9.49
-11.79
-14.29
-17.03
-19.98
-23.09
-26.31
-29.52
-32.43
-34.55
-35.25
-33.97
-30.45
-24.89
-17.90
-10.34
-3.07
3.28
8.44
12.33
15.05
16.70
17.41
17.32
16.69
15.85
15.13
14.77
14.79
15.05
15.33
15.42
15.22
14.74
14.05
13.22
12.25
11.11
9.74
8.05
6.01
3.64
1.06
-1.57
-4.09
-6.38
-8.43
-10.39
-12.47
-14.89
-17.81
-21.20
-24.89
-28.51
-31.58
-33.57
-34.01
-32.54
-29.04
-23.70
-17.08
-9.95
-3.16
2.57
6.84
9.51
10.76
10.90
10.29
9.33
8.33
7.59
7.29
7.47
8.05
8.84
9.69
10.45
11.03
11.34
11.33
10.89
9.97
8.57
6.73
4.51
1.98
-0.77
-3.66
-6.54
-9.29
-11.83
-14.22
-16.64
-19.27
-22.20
-25.28
-28.10
-30.04
-30.53
-29.17
-25.84
-20.85
-14.71
-8.13
-1.73
4.01
8.82
12.56
15.15
16.55
16.75
15.86
14.20
12.21
10.39
9.15
8.67
8.86
9.47
10.20
10.76
10.99
10.73
9.89
8.41
6.32
3.75
0.87
-2.09
-4.98
-7.70
-10.27
-12.80
-15.45
-18.37
-21.71
-25.43
-29.29
-32.84
-35.37
-36.14
-34.63
-30.70
-24.72
-17.44
-9.75
-2.44
3.95
9.16
13.12
15.88
17.46
17.92
17.37
16.05
14.32
12.62
11.30
10.56
10.41
10.69
11.15
11.58
11.83
11.77
11.33
10.39
8.78
6.44
3.40
-0.16
-3.95
-7.69
-11.24
-14.58
-17.85
-21.23
-24.83
-28.59
-32.22
-35.23
-37.04
-37.11
-35.10
-30.96
-24.98
-17.77
-10.09
-2.77
3.55
8.50
12.06
14.48
16.12
17.27
18.02
18.33
18.07
17.24
15.95
14.49
13.16
12.17
11.54
11.11
10.64
9.86
8.57
6.69
4.26
1.40
-1.69
-4.80
-7.78
-10.60
-13.34
-16.18
-19.29
-22.84
-26.78
-30.85
-34.53
-37.14
-38.00
-36.62
-32.85
-26.98
-19.68
-11.80
-4.18
2.52
7.92
11.91
14.53
15.94
16.30
15.84
14.86
13.70
12.69
12.06
11.86
12.01
12.29
12.50
12.48
12.20
11.67
10.89
9.82
8.36
6.38
3.83
0.79
-2.58
-6.03
-9.35
-12.42
-15.32
-18.22
-21.41
-25.04
-29.02
-32.96
-36.15
-37.77
-37.10
-33.76
-27.91
-20.18
-11.51
-2.91
4.82
11.22
16.18
19.79
22.21
23.58
23.98
23.53
22.47
21.13
19.85
18.91
18.36
18.08
17.87
17.52
16.98
16.33
15.63
14.86
13.85
12.31
9.99
6.84
3.04
-1.01
-4.84
-8.15
-10.85
-13.14
-15.42
-18.14
-21.56
-25.69
-30.22
-34.55
-37.90
-39.48
-38.70
-35.25
-29.33
-21.48
-12.60
-3.62
4.64
11.65
17.22
21.45
24.53
26.63
27.86
28.25
27.89
26.99
25.84
24.70
23.72
22.88
22.08
21.31
20.64
20.20
20.04
19.95
19.47
18.14
15.64
12.05
7.80
3.49
-0.36
-3.50
-5.96
-7.96
-9.84
-11.91
-14.46
-17.69
-21.68
-26.25
-30.87
-34.74
-36.92
-36.62
-33.50
-27.79
-20.21
-11.78
-3.45
4.09
10.51
15.73
19.75
22.53
24.01
24.21
23.33
21.85
20.37
19.47
19.45
20.23
21.42
22.52
23.17
23.26
22.93
22.45
21.97
21.46
20.65
19.22
16.95
13.90
10.28
6.50
2.86
-0.49
-3.59
-6.64
-9.81
-13.22
-16.84
-20.62
-24.42
-28.11
-31.40
-33.81
-34.73
-33.53
-29.90
-23.98
-16.42
-8.22
-0.38
6.34
11.64
15.57
18.36
20.21
21.25
21.50
21.07
20.17
19.20
18.56
18.53
19.16
20.16
21.08
21.50
21.16
20.15
18.78
17.40
16.20
15.09
13.80
12.02
9.58
6.58
3.31
0.11
-2.84
-5.56
-8.25
-11.14
-14.43
-18.19
-22.38
-26.80
-31.18
-35.11
-38.05
-39.39
-38.61
-35.38
-29.78
-22.29
-13.68
-4.89
3.27
10.23
15.73
19.78
22.51
24.02
24.45
23.91
22.66
21.09
19.63
18.65
18.28
18.36
18.55
18.48
17.98
17.07
15.97
14.87
13.80
12.64
11.14
9.11
6.58
3.64
0.53
-2.53
-5.45
-8.19
-10.77
-13.24
-15.71
-18.31
-21.19
-24.34
-27.51
-30.19
-31.63
-31.10
-28.22
-23.05
-16.10
-8.24
-0.39
6.64
12.31
16.31
18.59
19.25
18.55
16.88
14.72
12.56
10.82
9.77
9.51
9.92
10.78
11.84
12.87
13.71
14.22
14.33
13.93
12.93
11.22
8.78
5.67
2.08
-1.68
-5.26
-8.42
-11.04
-13.26
-15.43
-17.91
-21.00
-24.67
-28.58
-31.99
-34.07
-34.03
-31.41
-26.19
-18.86
-10.32
-1.55
6.52
13.24
18.25
21.47
23.01
23.12
22.11
20.34
18.20
16.02
14.08
12.56
11.57
11.13
11.16
11.51
12.00
12.43
12.67
12.66
12.36
11.67
10.42
8.43
5.61
2.06
-1.86
-5.72
-9.11
-11.87
-14.15
-16.37
-18.99
-22.32
-26.36
-30.68
-34.50
-36.87
-36.99
-34.42
-29.30
-22.25
-14.19
-6.09
1.30
7.53
12.47
16.16
18.71
20.18
20.66
20.25
19.17
17.82
16.62
15.91
15.83
16.22
16.74
17.00
16.77
16.05
15.03
13.94
12.91
11.86
10.58
8.80
6.40
3.43
0.07
-3.38
-6.69
-9.71
-12.47
-15.13
-17.93
-21.13
-24.86
-29.02
-33.18
-36.67
-38.65
-38.37
-35.48
-30.15
-23.05
-15.18
-7.51
-0.74
4.91
9.50
13.27
16.40
18.91
20.69
21.67
21.89
21.59
21.12
20.81
20.87
21.23
21.65
21.78
21.33
20.22
18.56
16.65
14.71
12.82
10.85
8.58
5.80
2.54
-0.95
-4.31
-7.22
-9.53
-11.41
-13.18
-15.29
-18.03
-21.49
-25.48
-29.54
-33.04
-35.28
-35.65
-33.79
-29.74
-23.94
-17.11
-10.01
-3.28
2.69
7.77
11.94
15.20
17.47
18.69
18.91
18.36
17.45
16.65
16.28
16.49
17.16
18.05
18.92
19.61
20.11
20.52
20.93
21.29
21.43
21.05
19.86
17.84
15.10
12.00
8.88
5.98
3.31
0.73
-1.91
-4.70
-7.65
-10.73
-13.98
-17.43
-21.02
-24.46
-27.18
-28.55
-28.09
-25.69
-21.73
-16.84
-11.67
-6.64
-1.87
2.70
7.04
10.90
13.88
15.51
15.62
14.46
12.62
10.86
9.81
9.77
10.62
11.96
13.22
14.00
14.08
13.51
12.49
11.27
10.01
8.72
7.36
5.82
4.07
2.14
0.07
-2.11
-4.40
-6.78
-9.23
-11.71
-14.16
-16.65
-19.27
-22.18
-25.41
-28.77
-31.83
-34.00
-34.67
-33.35
-29.85
-24.37
-17.44
-9.81
-2.29
4.44
10.00
14.26
17.30
19.24
20.17
20.18
19.44
18.22
16.91
15.88
15.37
15.43
15.91
16.51
16.91
16.85
16.18
14.89
13.14
11.18
9.29
7.58
5.98
4.30
2.32
0.02
-2.44
-4.74
-6.65
-8.16
-9.45
-10.83
-12.59
-14.93
-17.91
-21.46
-25.42
-29.44
-32.93
-35.19
-35.52
-33.49
-29.16
-23.08
-16.07
-9.02
-2.64
2.66
6.75
9.68
11.59
12.60
12.91
12.73
12.35
12.05
12.06
12.45
13.18
14.09
15.03
15.90
16.67
17.28
17.66
17.63
17.01
15.70
13.76
11.35
8.70
6.01
3.37
0.82
-1.65
-4.05
-6.37
-8.67
-11.06
-13.68
-16.66
-20.06
-23.77
-27.56
-31.05
-33.82
-35.44
-35.52
-33.81
-30.26
-25.12
-18.89
-12.27
-5.93
-0.36
4.21
7.76
10.37
12.08
12.87
12.77
11.95
10.74
9.60
8.89
8.81
9.29
10.08
10.87
11.46
11.74
11.76
11.55
11.15
10.49
9.45
7.92
5.84
3.31
0.54
-2.16
-4.51
-6.37
-7.82
-9.12
-10.61
-12.57
-15.13
-18.22
-21.59
-24.86
-27.57
-29.25
-29.46
-27.91
-24.55
-19.62
-13.69
-7.46
-1.64
3.17
6.69
8.80
9.65
9.51
8.76
7.73
6.82
6.30
6.35
6.99
8.08
9.34
10.46
11.19
11.41
11.19
10.67
10.01
9.24
8.26
6.95
5.20
3.07
0.68
-1.77
-4.13
-6.30
-8.29
-10.16
-12.05
-14.17
-16.68
-19.62
-22.74
-25.46
-27.02
-26.72
-24.26
-19.80
-14.00
-7.77
-1.93
2.99
6.77
9.42
11.05
11.75
11.62
10.80
9.51
8.06
6.73
5.76
5.23
5.09
5.23
5.52
5.84
6.03
5.86
5.16
3.77
1.72
-0.78
-3.42
-5.89
-8.04
-9.88
-11.52
-13.18
-15.01
-17.14
-19.62
-22.36
-25.04
-27.16
-28.04
-27.07
-23.96
-18.92
-12.58
-5.83
0.51
5.85
9.98
12.89
14.72
15.55
15.48
14.67
13.36
11.85
10.42
9.27
8.42
7.83
7.36
6.91
6.43
5.89
5.26
4.50
3.53
2.25
0.61
-1.40
-3.72
-6.25
-8.87
-11.56
-14.42
-17.66
-21.45
-25.78
-30.26
-34.12
-36.32
-36.01
-32.76
-26.90
-19.35
-11.34
-3.99
2.00
6.45
9.48
11.30
12.09
11.98
11.21
10.11
9.13
8.63
8.78
9.49
10.51
11.54
12.35
12.77
12.69
12.05
10.82
9.02
6.70
3.89
0.61
-3.14
-7.33
-11.85
-16.54
-21.23
-25.81
-30.22
-34.31
-37.75
-39.99
-40.38
-38.39
-33.90
-27.28
-19.39
-11.25
-3.75
2.59
7.60
11.40
14.21
16.17
17.40
17.96
18.03
17.87
17.73
17.78
18.01
18.31
18.49
18.41
17.97
17.12
15.81
14.01
11.72
9.06
6.17
3.23
0.35
-2.48
-5.35
-8.49
-12.10
-16.37
-21.30
-26.64
-31.78
-35.83
-37.77
-36.82
-32.68
-25.77
-17.14
-8.16
-0.01
6.66
11.79
15.74
18.91
21.47
23.30
24.16
23.95
22.88
21.43
20.13
19.32
19.04
19.06
19.09
18.90
18.47
17.89
17.20
16.34
15.10
13.31
10.83
7.73
4.25
0.73
-2.52
-5.33
-7.77
-10.13
-12.86
-16.34
-20.75
-25.85
-30.98
-35.13
-37.24
-36.56
-32.84
-26.52
-18.47
-9.82
-1.51
5.88
12.15
17.40
21.78
25.35
28.02
29.63
30.09
29.60
28.56
27.46
26.77
26.68
27.08
27.68
28.08
27.94
27.14
25.71
23.83
21.73
19.55
17.34
15.01
12.42
9.49
6.28
3.01
-0.04
-2.70
-4.96
-7.06
-9.33
-12.05
-15.36
-19.31
-23.82
-28.76
-33.81
-38.47
-41.97
-43.46
-42.29
-38.28
-31.79
-23.69
-15.01
-6.65
0.77
6.99
11.98
15.77
18.44
20.06
20.80
20.96
20.88
20.91
21.39
22.50
24.25
26.49
28.97
31.32
33.18
34.23
34.27
33.23
31.22
28.40
25.03
21.38
17.66
14.02
10.48
6.98
3.35
-0.56
-4.84
-9.45
-14.25
-19.06
-23.76
-28.26
-32.59
-36.82
-41.00
-45.07
-48.76
-51.60
-52.92
-52.13
-48.89
-43.31
-35.95
-27.61
-19.09
-10.93
-3.38
3.51
9.79
15.37
20.02
23.47
25.58
26.48
26.56
26.39
26.49
27.13
28.29
29.68
30.94
31.80
32.10
31.83
31.01
29.66
27.77
25.39
22.67
19.80
16.99
14.30
11.74
9.28
6.88
4.58
2.40
0.29
-1.88
-4.35
-7.35
-11.04
-15.46
-20.35
-25.19
-29.19
-31.45
-31.23
-28.22
-22.63
-15.20
-6.89
1.35
8.88
15.37
20.64
24.56
26.95
27.74
27.06
25.38
23.41
21.84
21.13
21.31
22.09
23.09
23.93
24.42
24.53
24.28
23.71
22.88
21.82
20.52
19.03
17.33
15.39
13.18
10.73
8.13
5.54
3.09
0.82
-1.45
-4.05
-7.37
-11.68
-16.94
-22.71
-28.18
-32.46
-34.73
-34.60
-32.16
-27.80
-22.17
-15.86
-9.36
-3.05
2.74
7.68
11.46
13.84
14.86
14.80
14.21
13.71
13.79
14.62
16.05
17.69
19.10
19.96
20.16
19.78
19.01
17.99
16.80
15.39
13.67
11.55
8.99
6.03
2.77
-0.61
-3.93
-7.07
-10.00
-12.84
-15.78
-19.07
-22.81
-26.89
-30.92
-34.24
-36.07
-35.80
-33.18
-28.42
-22.15
-15.23
-8.42
-2.21
3.17
7.69
11.33
13.99
15.56
15.99
15.50
14.47
13.39
12.60
12.25
12.24
12.38
12.50
12.52
12.39
12.06
11.48
10.53
9.17
7.43
5.39
3.16
0.80
-1.66
-4.21
-6.86
-9.63
-12.61
-15.94
-19.75
-23.99
-28.36
-32.23
-34.80
-35.31
-33.39
-29.13
-23.12
-16.22
-9.27
-2.93
2.35
6.44
9.31
11.06
11.84
11.87
11.40
10.71
10.06
9.63
9.51
9.68
10.01
10.34
10.53
10.53
10.32
9.90
9.19
8.06
6.30
3.83
0.76
-2.57
-5.79
-8.61
-11.01
-13.19
-15.53
-18.35
-21.79
-25.69
-29.60
-32.82
-34.56
-34.16
-31.31
-26.19
-19.46
-12.05
-4.87
1.41
6.49
10.39
13.26
15.25
16.48
16.98
16.85
16.21
15.27
14.23
13.22
12.34
11.66
11.23
11.05
11.03
10.93
10.47
9.37
7.51
4.95
1.95
-1.15
-4.05
-6.64
-8.98
-11.29
-13.83
-16.79
-20.25
-24.10
-28.05
-31.64
-34.22
-35.11
-33.78
-30.00
-24.07
-16.74
-9.04
-1.96
3.90
8.33
11.53
13.80
15.38
16.37
16.79
16.72
16.34
15.87
15.53
15.32
15.19
15.00
14.67
14.20
13.62
12.90
11.96
10.64
8.77
6.29
3.24
-0.17
-3.70
-7.10
-10.28
-13.30
-16.41
-19.94
-24.09
-28.78
-33.59
-37.78
-40.52
-41.11
-39.19
-34.82
-28.46
-20.82
-12.67
-4.74
2.48
8.68
13.76
17.78
20.80
22.88
24.02
24.26
23.77
22.80
21.70
20.72
20.00
19.46
18.90
18.18
17.28
16.28
15.33
14.41
13.30
11.66
9.21
5.91
2.08
-1.79
-5.23
-8.00
-10.25
-12.35
-14.75
-17.72
-21.33
-25.38
-29.52
-33.27
-36.03
-37.17
-36.14
-32.66
-26.92
-19.54
-11.43
-3.53
3.51
9.34
13.92
17.38
19.88
21.53
22.41
22.65
22.44
22.02
21.66
21.54
21.73
22.16
22.66
23.02
23.09
22.87
22.38
21.66
20.66
19.20
17.09
14.24
10.72
6.81
2.86
-0.82
-4.05
-6.85
-9.45
-12.18
-15.39
-19.34
-24.10
-29.51
-35.08
-40.10
-43.71
-45.14
-43.88
-39.85
-33.47
-25.49
-16.90
-8.54
-0.99
5.49
10.90
15.30
18.72
21.08
22.36
22.62
22.10
21.20
20.32
19.76
19.62
19.82
20.14
20.39
20.44
20.23
19.81
19.22
18.43
17.34
15.85
13.85
11.40
8.62
5.74
2.98
0.48
-1.78
-3.90
-6.13
-8.67
-11.71
-15.36
-19.63
-24.40
-29.43
-34.31
-38.46
-41.21
-41.92
-40.15
-35.83
-29.30
-21.28
-12.69
-4.40
2.96
9.09
13.96
17.68
20.36
22.06
22.83
22.78
22.20
21.51
21.14
21.34
22.07
23.00
23.71
23.87
23.41
22.47
21.32
20.14
18.91
17.42
15.41
12.71
9.33
5.52
1.62
-2.04
-5.25
-7.97
-10.34
-12.63
-15.11
-18.02
-21.49
-25.50
-29.88
-34.24
-37.99
-40.39
-40.73
-38.55
-33.84
-27.02
-18.92
-10.52
-2.68
4.04
9.44
13.53
16.53
18.60
19.91
20.55
20.66
20.41
20.02
19.73
19.73
20.11
20.79
21.57
22.21
22.51
22.37
21.80
20.84
19.54
17.86
15.78
13.33
10.57
7.63
4.69
1.86
-0.83
-3.36
-5.79
-8.22
-10.74
-13.53
-16.73
-20.46
-24.59
-28.73
-32.27
-34.47
-34.71
-32.66
-28.31
-22.02
-14.38
-6.14
1.96
9.21
15.11
19.38
21.96
23.00
22.81
21.70
20.02
18.10
16.29
14.90
14.11
13.92
14.11
14.38
14.46
14.29
13.94
13.56
13.25
12.88
12.20
10.93
8.93
6.27
3.24
0.13
-2.85
-5.64
-8.31
-11.03
-13.89
-16.98
-20.31
-23.86
-27.52
-31.00
-33.75
-35.06
-34.24
-30.89
-25.17
-17.77
-9.73
-2.02
4.62
9.91
13.84
16.58
18.21
18.79
18.39
17.27
15.81
14.49
13.66
13.44
13.71
14.23
14.74
15.05
15.12
15.00
14.72
14.22
13.38
12.01
9.96
7.23
4.02
0.66
-2.50
-5.23
-7.57
-9.77
-12.19
-15.14
-18.68
-22.67
-26.78
-30.57
-33.50
-35.03
-34.63
-31.99
-27.11
-20.38
-12.58
-4.69
2.38
7.96
11.78
13.97
14.84
14.81
14.24
13.36
12.35
11.35
10.53
10.02
9.89
10.09
10.46
10.79
10.94
10.84
10.57
10.15
9.54
8.60
7.15
5.08
2.46
-0.53
-3.63
-6.67
-9.59
-12.46
-15.41
-18.60
-22.09
-25.82
-29.51
-32.66
-34.60
-34.62
-32.29
-27.53
-20.81
-13.02
-5.20
1.76
7.33
11.36
14.01
15.45
15.80
15.11
13.47
11.15
8.61
6.40
4.97
4.51
4.87
5.74
6.73
7.54
7.98
7.96
7.42
6.31
4.67
2.59
0.23
-2.22
-4.60
-6.88
-9.09
-11.41
-14.08
-17.29
-21.08
-25.27
-29.35
-32.64
-34.41
-34.09
-31.48
-26.77
-20.45
-13.24
-5.89
0.95
6.78
11.28
14.33
16.01
16.51
16.10
15.05
13.64
12.15
10.88
10.04
9.78
10.08
10.73
11.41
11.79
11.64
10.87
9.49
7.59
5.26
2.57
-0.38
-3.46
-6.49
-9.35
-12.03
-14.69
-17.62
-21.12
-25.29
-29.89
-34.29
-37.60
-38.90
-37.58
-33.51
-27.16
-19.37
-11.20
-3.49
3.20
8.70
13.01
16.22
18.36
19.43
19.56
19.00
18.13
17.29
16.70
16.34
16.07
15.71
15.15
14.41
13.54
12.56
11.42
9.94
8.02
5.57
2.68
-0.55
-3.96
-7.37
-10.72
-13.96
-17.17
-20.47
-24.00
-27.82
-31.83
-35.66
-38.71
-40.22
-39.49
-36.15
-30.35
-22.77
-14.39
-6.18
1.16
7.38
12.55
16.86
20.39
23.08
24.79
25.44
25.15
24.22
23.00
21.81
20.85
20.17
19.76
19.55
19.47
19.38
19.09
18.37
16.95
14.68
11.56
7.79
3.75
-0.11
-3.46
-6.21
-8.52
-10.74
-13.28
-16.40
-20.15
-24.31
-28.46
-32.03
-34.35
-34.82
-33.03
-28.96
-22.98
-15.76
-8.17
-0.96
5.41
10.77
15.15
18.58
21.06
22.50
22.85
22.26
21.05
19.73
18.80
18.56
19.08
20.18
21.53
22.80
23.73
24.12
23.86
22.86
21.03
18.40
15.08
11.25
7.19
3.14
-0.72
-4.31
-7.68
-10.97
-14.36
-18.04
-22.18
-26.82
-31.80
-36.63
-40.52
-42.54
-41.92
-38.31
-32.06
-24.03
-15.37
-7.11
0.21
6.43
11.75
16.34
20.17
22.98
24.51
24.69
23.81
22.47
21.27
20.65
20.66
21.09
21.52
21.69
21.53
21.16
20.80
20.49
20.09
19.21
17.54
14.94
11.59
7.93
4.46
1.54
-0.79
-2.71
-4.58
-6.73
-9.37
-12.63
-16.56
-21.10
-25.97
-30.65
-34.27
-35.91
-34.83
-30.87
-24.47
-16.59
-8.38
-0.72
5.88
11.31
15.67
19.05
21.43
22.75
23.08
22.73
22.17
21.89
22.22
23.15
24.43
25.66
26.48
26.75
26.47
25.72
24.58
23.06
21.06
18.52
15.42
11.91
8.24
4.66
1.40
-1.52
-4.14
-6.62
-9.10
-11.72
-14.60
-17.88
-21.68
-25.99
-30.56
-34.83
-37.96
-39.13
-37.74
-33.67
-27.37
-19.68
-11.61
-4.05
2.46
7.71
11.70
14.51
16.19
16.81
16.55
15.75
14.87
14.31
14.28
14.69
15.27
15.70
15.84
15.74
15.58
15.47
15.41
15.23
14.68
13.62
12.00
9.88
7.36
4.59
1.68
-1.20
-3.87
-6.25
-8.38
-10.50
-12.94
-16.00
-19.73
-23.82
-27.62
-30.33
-31.15
-29.57
-25.54
-19.42
-11.99
-4.23
2.91
8.70
12.82
15.31
16.48
16.78
16.55
16.03
15.32
14.48
13.57
12.73
12.10
11.78
11.74
11.90
12.11
12.22
12.10
11.58
10.57
8.99
6.90
4.45
1.83
-0.83
-3.49
-6.24
-9.18
-12.39
-15.85
-19.53
-23.32
-27.10
-30.58
-33.30
-34.61
-33.86
-30.66
-25.10
-17.79
-9.66
-1.74
5.20
10.77
14.91
17.76
19.43
19.97
19.42
17.88
15.63
13.15
10.94
9.45
8.91
9.27
10.22
11.36
12.28
12.69
12.44
11.49
9.88
7.67
4.91
1.76
-1.57
-4.83
-7.77
-10.32
-12.64
-15.11
-18.11
-21.85
-26.19
-30.57
-34.13
-35.97
-35.43
-32.29
-26.79
-19.58
-11.53
-3.51
3.76
9.77
14.22
17.06
18.43
18.60
17.95
16.85
15.59
14.39
13.35
12.50
11.88
11.49
11.28
11.17
11.01
10.62
9.85
8.62
6.96
4.96
2.69
0.25
-2.27
-4.74
-7.08
-9.21
-11.25
-13.42
-16.09
-19.54
-23.76
-28.37
-32.60
-35.52
-36.32
-34.52
-30.18
-23.79
-16.20
-8.34
-1.04
5.20
10.22
14.13
17.16
19.48
21.11
22.03
22.22
21.76
20.88
19.81
18.77
17.83
17.02
16.32
15.76
15.33
14.96
14.47
13.65
12.25
10.13
7.29
3.86
0.08
-3.75
-7.39
-10.68
-13.67
-16.55
-19.69
-23.37
-27.63
-32.15
-36.23
-38.98
-39.57
-37.50
-32.81
-26.04
-18.07
-9.90
-2.37
4.02
9.07
12.84
15.48
17.16
18.05
18.31
18.15
17.80
17.43
17.12
16.86
16.55
16.10
15.54
14.96
14.49
14.17
13.88
13.36
12.29
10.45
7.82
4.59
1.09
-2.37
-5.55
-8.41
-11.05
-13.70
-16.58
-19.86
-23.52
-27.38
-31.01
-33.80
-35.04
-34.15
-30.87
-25.40
-18.39
-10.80
-3.50
2.89
8.17
12.53
16.20
19.33
21.79
23.33
23.78
23.18
21.89
20.41
19.21
18.50
18.27
18.24
18.13
17.77
17.09
16.12
14.85
13.21
11.04
8.27
4.96
1.36
-2.18
-5.33
-8.02
-10.42
-12.88
-15.83
-19.49
-23.79
-28.28
-32.18
-34.59
-34.74
-32.26
-27.35
-20.73
-13.40
-6.29
0.01
5.30
9.64
13.18
15.94
17.84
18.79
18.90
18.43
17.79
17.33
17.18
17.27
17.33
17.10
16.49
15.58
14.59
13.73
12.95
12.02
10.60
8.48
5.64
2.36
-1.00
-4.18
-7.09
-9.92
-12.94
-16.38
-20.22
-24.17
-27.64
-29.91
-30.29
-28.36
-24.10
-17.90
-10.50
-2.76
4.54
10.86
15.90
19.61
22.12
23.56
24.10
23.89
23.11
22.03
20.90
19.95
19.32
18.99
18.81
18.57
18.06
17.14
15.74
13.91
11.69
9.18
6.44
3.55
0.53
-2.65
-6.03
-9.65
-13.52
-17.60
-21.80
-25.95
-29.73
-32.64
-34.02
-33.27
-30.03
-24.44
-17.07
-8.85
-0.73
6.47
12.25
16.42
18.95
20.00
19.79
18.66
17.00
15.26
13.80
12.89
12.65
12.99
13.67
14.35
14.72
14.62
14.05
13.16
12.10
10.95
9.60
7.84
5.46
2.38
-1.31
-5.41
-9.65
-13.84
-17.83
-21.40
-24.17
-25.59
-25.03
-22.08
-16.74
-9.52
-1.32
6.87
14.22
20.32
25.13
28.78
31.41
33.06
33.78
33.70
33.10
32.40
32.07
32.45
33.77
36.05
39.19
42.82
46.44
49.36
50.92
50.64
48.38
44.39
39.17
33.32
27.26
21.21
15.14
8.88
2.28
-4.69
-11.85
-18.74
-24.74
-29.16
-31.42
-31.25
-28.75
-24.39
-18.90
-13.09
-7.61
-2.93
0.70
3.22
4.64
5.06
4.67
3.72
2.59
1.66
1.28
1.66
2.86
4.73
6.94
9.07
10.66
11.39
11.09
9.85
7.89
5.49
2.80
-0.27
-3.90
-8.36
-13.75
-19.93
-26.50
-32.86
-38.31
-42.16
-43.82
-42.97
-39.66
-34.32
-27.73
-20.79
-14.27
-8.69
-4.25
-0.98
1.11
2.00
1.74
0.55
-1.15
-2.82
-4.02
-4.51
-4.34
-3.71
-2.90
-2.10
-1.43
-0.96
-0.76
-0.86
-1.28
-2.04
-3.11
-4.57
-6.48
-8.86
-11.70
-14.94
-18.52
-22.37
-26.30
-29.99
-32.87
-34.30
-33.79
-31.16
-26.63
-20.76
-14.22
-7.55
-1.14
4.78
10.00
14.28
17.35
19.11
19.64
19.32
18.61
18.01
17.74
17.77
17.87
17.69
17.01
15.77
14.12
12.26
10.43
8.69
7.01
5.18
2.95
0.15
-3.32
-7.36
-11.80
-16.42
-20.99
-25.31
-29.04
-31.69
-32.71
-31.63
-28.38
-23.38
-17.48
-11.67
-6.77
-3.16
-0.76
0.78
1.80
2.47
2.71
2.40
1.51
0.23
-1.06
-2.00
-2.32
-2.06
-1.47
-0.95
-0.84
-1.30
-2.31
-3.77
-5.53
-7.54
-9.79
-12.22
-14.73
-17.21
-19.58
-21.89
-24.31
-27.03
-30.03
-33.03
-35.40
-36.41
-35.44
-32.22
-26.96
-20.25
-12.92
-5.77
0.57
5.74
9.66
12.40
14.13
14.98
15.12
14.61
13.65
12.45
11.31
10.47
10.04
9.92
9.84
9.51
8.73
7.52
6.03
4.41
2.75
0.97
-1.08
-3.50
-6.24
-9.16
-12.09
-14.97
-17.94
-21.23
-24.99
-29.07
-32.98
-35.94
-37.11
-35.84
-32.07
-26.27
-19.32
-12.21
-5.71
-0.20
4.33
7.99
10.88
12.93
14.01
14.05
13.27
12.10
11.07
10.54
10.61
11.10
11.72
12.21
12.39
12.16
11.42
10.06
8.03
5.37
2.27
-1.01
-4.24
-7.33
-10.35
-13.42
-16.67
-20.17
-23.92
-27.87
-31.92
-35.78
-38.93
-40.73
-40.52
-37.96
-33.17
-26.67
-19.21
-11.54
-4.20
2.43
8.14
12.69
15.90
17.69
18.15
17.56
16.30
14.80
13.39
12.28
11.58
11.31
11.37
11.60
11.79
11.72
11.24
10.29
8.88
7.05
4.95
2.68
0.37
-1.92
-4.15
-6.39
-8.75
-11.29
-14.16
-17.42
-21.07
-24.93
-28.63
-31.58
-33.08
-32.55
-29.67
-24.59
-17.83
-10.17
-2.43
4.71
10.83
15.68
19.19
21.37
22.32
22.24
21.49
20.49
19.58
19.01
18.75
18.66
18.54
18.32
18.02
17.71
17.34
16.77
15.73
13.98
11.48
8.39
5.03
1.72
-1.35
-4.21
-7.05
-10.14
-13.67
-17.69
-22.11
-26.68
-31.00
-34.52
-36.61
-36.71
-34.44
-29.77
-23.11
-15.18
-6.92
0.82
7.39
12.48
16.07
18.33
19.49
19.73
19.29
18.36
17.22
16.17
15.45
15.24
15.53
16.21
17.06
17.84
18.33
18.32
17.67
16.32
14.29
11.77
9.00
6.21
3.52
0.93
-1.73
-4.65
-8.04
-11.99
-16.44
-21.15
-25.65
-29.27
-31.22
-30.86
-27.89
-22.52
-15.45
-7.67
-0.17
6.36
11.62
15.62
18.44
20.18
20.84
20.45
19.18
17.33
15.36
13.76
12.87
12.77
13.30
14.12
14.83
15.15
14.88
14.02
12.63
10.83
8.69
6.31
3.77
1.13
-1.57
-4.38
-7.40
-10.76
-14.52
-18.60
-22.72
-26.42
-29.12
-30.23
-29.24
-25.97
-20.57
-13.60
-5.89
1.67
8.25
13.35
16.79
18.67
19.28
18.94
17.92
16.45
14.76
13.11
11.77
11.01
11.00
11.74
13.00
14.39
15.47
15.90
15.53
14.40
12.69
10.58
8.16
5.51
2.65
-0.33
-3.36
-6.46
-9.73
-13.34
-17.40
-21.70
-25.67
-28.50
-29.34
-27.71
-23.61
-17.63
-10.68
-3.69
2.64
7.97
12.25
15.51
17.72
18.75
18.54
17.21
15.16
12.99
11.32
10.55
10.79
11.77
13.11
14.40
15.30
15.57
15.05
13.63
11.26
8.07
4.30
0.33
-3.49
-6.98
-10.11
-13.07
-16.14
-19.52
-23.20
-26.90
-30.04
-31.92
-31.91
-29.62
-25.06
-18.68
-11.19
-3.43
3.82
9.98
14.68
17.76
19.23
19.20
17.92
15.67
12.86
9.94
7.32
5.38
4.24
3.82
3.80
3.71
3.12
1.78
-0.33
-3.06
-6.27
-9.86
-13.86
-18.31
-23.22
-28.54
-34.20
-40.23
-46.73
-53.76
-61.18
-68.51
-74.98
-79.79
-82.39
-82.80
-81.53
-79.45
-77.51
-76.45
-76.73
-78.52
-81.86
-86.71
-92.95
-100.28
-108.19
-115.86
-122.25
-126.27
-126.87
-123.19
-114.69
-101.23
-83.06
-60.78
-35.28
-7.67
20.83
48.88
75.09
98.17
117.01
130.89
139.55
143.20
142.38
137.87
130.53
121.33
111.32
101.64
93.37
87.35
83.96
82.95
83.54
84.65
85.22
84.60
82.60
79.41
75.30
70.49
65.08
59.15
52.94
46.90
41.56
37.32
34.21
31.93
29.91
27.62
24.72
21.24
17.37
13.37
9.45
5.59
1.76
-2.08
-5.94
-9.82
-13.76
-17.83
-22.06
-26.24
-29.84
-32.05
-32.09
-29.52
-24.50
-17.72
-10.20
-2.89
3.59
8.99
13.28
16.45
18.43
19.16
18.71
17.40
15.74
14.26
13.33
13.05
13.25
13.61
13.83
13.66
12.95
11.69
9.94
7.84
5.51
3.04
0.45
-2.32
-5.42
-9.00
-13.16
-17.85
-22.80
-27.48
-31.16
-33.10
-32.75
-29.95
-24.99
-18.50
-11.27
-4.02
2.76
8.77
13.88
17.94
20.75
22.15
22.07
20.73
18.63
16.49
14.97
14.47
14.93
15.88
16.69
16.85
16.13
14.63
12.67
10.56
8.43
6.32
4.18
1.96
-0.41
-3.03
-6.04
-9.60
-13.79
-18.45
-23.19
-27.33
-30.15
-30.99
-29.48
-25.65
-19.89
-12.92
-5.51
1.65
8.08
13.50
17.76
20.76
22.48
22.98
22.47
21.28
19.81
18.45
17.47
17.00
17.07
17.58
18.30
18.88
18.97
18.20
16.42
13.71
10.33
6.65
2.94
-0.62
-4.02
-7.30
-10.56
-13.90
-17.39
-21.11
-24.99
-28.79
-32.00
-33.91
-33.75
-31.03
-25.76
-18.52
-10.28
-2.08
5.35
11.69
16.99
21.38
24.86
27.26
28.39
28.21
27.01
25.28
23.51
22.05
20.94
20.08
19.32
18.61
17.98
17.42
16.80
15.87
14.41
12.34
9.78
7.01
4.30
1.78
-0.64
-3.07
-5.68
-8.50
-11.58
-14.98
-18.79
-22.98
-27.29
-31.08
-33.49
-33.70
-31.27
-26.33
-19.52
-11.77
-3.92
3.40
9.86
15.31
19.60
22.67
24.51
25.29
25.33
24.99
24.58
24.22
23.93
23.59
23.14
22.56
21.89
21.15
20.32
19.37
18.21
16.78
14.99
12.81
10.18
7.16
3.87
0.54
-2.61
-5.44
-8.00
-10.55
-13.43
-16.99
-21.34
-26.28
-31.19
-35.22
-37.43
-37.13
-34.05
-28.45
-21.10
-12.95
-4.93
2.28
8.38
13.29
17.02
19.57
20.97
21.28
20.72
19.65
18.48
17.51
16.86
16.48
16.24
16.03
15.84
15.70
15.62
15.52
15.19
14.38
12.88
10.61
7.71
4.45
1.17
-1.84
-4.47
-6.81
-9.04
-11.43
-14.18
-17.38
-20.97
-24.72
-28.25
-30.98
-32.28
-31.59
-28.62
-23.55
-16.98
-9.73
-2.65
3.68
8.97
13.11
16.03
17.69
18.11
17.49
16.27
15.01
14.19
13.98
14.29
14.83
15.35
15.73
16.02
16.25
16.34
16.13
15.41
14.05
12.05
9.54
6.68
3.63
0.50
-2.56
-5.49
-8.25
-10.96
-13.81
-17.09
-20.89
-25.15
-29.46
-33.15
-35.47
-35.74
-33.61
-29.20
-23.04
-15.96
-8.77
-2.08
3.80
8.80
12.85
15.84
17.63
18.16
17.60
16.39
15.10
14.14
13.63
13.37
13.08
12.54
11.77
10.95
10.20
9.52
8.72
7.58
5.94
3.83
1.41
-1.10
-3.56
-5.91
-8.25
-10.71
-13.43
-16.46
-19.83
-23.37
-26.83
-29.73
-31.53
-31.67
-29.80
-25.84
-20.09
-13.17
-5.83
1.14
7.14
11.80
14.96
16.62
16.91
16.06
14.42
12.46
10.57
9.10
8.19
7.79
7.78
8.02
8.37
8.70
8.92
8.90
8.53
7.70
6.32
4.37
1.93
-0.88
-3.81
-6.59
-9.01
-11.04
-12.86
-14.78
-17.08
-19.82
-22.69
-25.18
-26.58
-26.38
-24.32
-20.52
-15.43
-9.65
-3.83
1.48
5.90
9.24
11.43
12.56
12.81
12.42
11.66
10.78
9.98
9.37
8.97
8.80
8.78
8.83
8.87
8.74
8.28
7.39
5.96
4.02
1.63
-1.06
-3.87
-6.60
-9.13
-11.46
-13.70
-16.11
-18.95
-22.33
-26.14
-29.96
-33.15
-35.04
-35.07
-32.98
-28.83
-23.00
-16.11
-8.83
-1.87
4.22
9.09
12.63
14.90
16.08
16.40
16.10
15.42
14.59
13.84
13.29
13.01
12.96
13.01
13.04
12.95
12.63
12.00
10.93
9.28
6.99
4.11
0.84
-2.50
-5.64
-8.41
-10.87
-13.24
-15.84
-18.94
-22.65
-26.84
-31.18
-35.08
-37.81
-38.71
-37.33
-33.57
-27.78
-20.64
-12.99
-5.57
1.13
6.87
11.60
15.34
18.09
19.79
20.46
20.27
19.53
18.65
17.99
17.72
17.79
18.02
18.17
18.12
17.87
17.42
16.75
15.68
14.01
11.61
8.47
4.81
1.01
-2.56
-5.68
-8.28
-10.47
-12.50
-14.65
-17.22
-20.44
-24.38
-28.84
-33.39
-37.29
-39.78
-40.21
-38.26
-33.97
-27.82
-20.46
-12.61
-4.88
2.27
8.51
13.59
17.39
19.88
21.11
21.33
20.94
20.36
20.01
20.09
20.59
21.29
21.87
22.05
21.72
20.91
19.78
18.46
17.02
15.38
13.44
11.11
8.35
5.25
1.98
-1.30
-4.42
-7.33
-10.11
-12.88
-15.89
-19.35
-23.34
-27.75
-32.21
-36.08
-38.65
-39.27
-37.52
-33.40
-27.30
-19.97
-12.25
-4.93
1.54
6.91
11.23
14.59
17.06
18.63
19.38
19.51
19.41
19.58
20.37
21.83
23.64
25.25
26.14
26.05
25.08
23.58
21.94
20.39
18.87
17.14
14.92
12.06
8.64
4.89
1.14
-2.34
-5.38
-7.97
-10.25
-12.46
-14.87
-17.77
-21.27
-25.34
-29.67
-33.69
-36.65
-37.80
-36.62
-32.94
-27.13
-19.95
-12.33
-5.15
1.06
6.13
10.17
13.37
15.81
17.47
18.30
18.34
17.87
17.29
16.95
17.05
17.45
17.85
17.95
17.62
16.93
16.14
15.46
14.90
14.29
13.36
11.89
9.83
7.31
4.60
1.97
-0.42
-2.54
-4.51
-6.50
-8.72
-11.35
-14.48
-18.12
-22.15
-26.32
-30.22
-33.35
-35.11
-34.97
-32.65
-28.19
-22.02
-14.85
-7.48
-0.59
5.36
10.20
13.93
16.67
18.49
19.42
19.50
18.88
17.83
16.76
16.08
16.06
16.72
17.78
18.83
19.45
19.43
18.79
17.72
16.45
15.07
13.57
11.85
9.81
7.45
4.86
2.16
-0.53
-3.10
-5.56
-7.94
-10.36
-12.97
-15.96
-19.47
-23.55
-28.08
-32.64
-36.59
-39.19
-39.76
-37.92
-33.72
-27.63
-20.36
-12.72
-5.37
1.22
6.74
11.01
13.97
15.64
16.24
16.09
15.61
15.17
15.02
15.25
15.82
16.64
17.64
18.72
19.77
20.63
21.14
21.18
20.70
19.71
18.26
16.40
14.18
11.69
9.05
6.45
4.06
1.97
0.06
-1.91
-4.28
-7.29
-11.00
-15.31
-19.91
-24.46
-28.51
-31.59
-33.20
-32.95
-30.65
-26.39
-20.61
-13.94
-7.03
-0.41
5.49
10.40
14.11
16.46
17.44
17.21
16.12
14.66
13.33
12.52
12.42
13.01
14.08
15.31
16.35
16.93
16.93
16.41
15.53
14.41
13.08
11.39
9.20
6.43
3.20
-0.21
-3.46
-6.28
-8.59
-10.50
-12.24
-14.07
-16.16
-18.64
-21.54
-24.79
-28.11
-31.03
-32.88
-32.97
-30.84
-26.43
-20.20
-13.01
-5.84
0.48
5.46
8.99
11.24
12.48
12.94
12.83
12.37
11.83
11.48
11.53
12.03
12.81
13.59
14.12
14.33
14.34
14.33
14.40
14.45
14.15
13.21
11.45
9.00
6.17
3.36
0.82
-1.42
-3.48
-5.50
-7.65
-10.02
-12.70
-15.81
-19.43
-23.47
-27.57
-31.04
-33.09
-33.06
-30.64
-26.05
-19.94
-13.17
-6.54
-0.61
4.35
8.26
11.08
12.81
13.46
13.13
12.10
10.75
9.47
8.61
8.32
8.62
9.35
10.29
11.19
11.84
12.02
11.61
10.54
8.81
6.56
3.97
1.22
-1.55
-4.29
-7.05
-9.92
-12.97
-16.22
-19.57
-22.97
-26.29
-29.38
-31.98
-33.66
-33.88
-32.19
-28.47
-23.02
-16.54
-9.85
-3.65
1.65
5.93
9.24
11.63
13.08
13.61
13.29
12.39
11.29
10.39
9.98
10.14
10.75
11.56
12.28
12.69
12.65
12.12
11.08
9.60
7.70
5.50
3.08
0.57
-1.91
-4.31
-6.64
-8.99
-11.50
-14.29
-17.50
-21.17
-25.22
-29.30
-32.85
-35.16
-35.57
-33.68
-29.52
-23.56
-16.58
-9.40
-2.72
3.08
7.82
11.52
14.21
15.89
16.55
16.28
15.31
13.98
12.69
11.76
11.32
11.31
11.52
11.70
11.68
11.35
10.74
9.83
8.60
6.96
4.83
2.22
-0.75
-3.81
-6.71
-9.36
-11.86
-14.55
-17.79
-21.77
-26.38
-31.13
-35.33
-38.23
-39.27
-38.18
-34.99
-30.05
-23.86
-16.98
-9.96
-3.24
2.89
8.27
12.81
16.45
19.13
20.84
21.66
21.78
21.43
20.91
20.41
20.07
19.92
19.89
19.91
19.89
19.72
19.32
18.60
17.46
15.77
13.43
10.37
6.65
2.46
-1.83
-5.84
-9.29
-12.18
-14.79
-17.55
-20.90
-25.02
-29.75
-34.57
-38.65
-41.16
-41.42
-39.13
-34.44
-27.92
-20.36
-12.60
-5.28
1.19
6.66
11.13
14.66
17.29
19.05
20.04
20.47
20.62
20.81
21.26
22.02
22.94
23.80
24.34
24.45
24.08
23.30
22.16
20.69
18.87
16.66
14.07
11.18
8.08
4.94
1.89
-0.99
-3.66
-6.23
-8.86
-11.81
-15.27
-19.33
-23.89
-28.61
-32.99
-36.36
-38.02
-37.43
-34.35
-28.93
-21.80
-13.80
-5.80
1.55
7.90
13.18
17.40
20.54
22.54
23.39
23.22
22.42
21.46
20.79
20.67
21.11
21.93
22.84
23.56
23.91
23.86
23.40
22.63
21.63
20.46
19.10
17.52
15.63
13.39
10.82
7.96
4.90
1.73
-1.50
-4.73
-7.97
-11.23
-14.59
-18.14
-22.01
-26.21
-30.60
-34.79
-38.14
-39.90
-39.42
-36.39
-30.98
-23.81
-15.81
-7.92
-0.81
5.19
10.01
13.75
16.41
18.01
18.58
18.39
17.90
17.65
18.06
19.23
20.87
22.54
23.76
24.29
24.11
23.41
22.40
21.28
20.11
18.85
17.42
15.69
13.64
11.26
8.69
6.05
3.51
1.10
-1.20
-3.52
-6.02
-8.85
-12.13
-15.93
-20.18
-24.58
-28.59
-31.46
-32.42
-30.94
-26.92
-20.82
-13.44
-5.70
1.65
8.21
13.82
18.46
22.06
24.46
25.53
25.34
24.21
22.65
21.24
20.34
20.01
20.10
20.30
20.34
20.06
19.42
18.46
17.29
15.97
14.54
12.98
11.16
8.92
6.24
3.23
0.16
-2.69
-5.18
-7.36
-9.46
-11.78
-14.51
-17.72
-21.32
-25.10
-28.75
-31.77
-33.54
-33.40
-30.91
-26.04
-19.24
-11.38
-3.43
3.75
9.65
14.11
17.12
18.79
19.25
18.64
17.26
15.51
13.92
12.91
12.64
13.03
13.73
14.35
14.59
14.37
13.81
13.12
12.43
11.69
10.70
9.19
6.97
4.08
0.73
-2.73
-6.00
-8.97
-11.68
-14.30
-17.00
-19.86
-22.82
-25.64
-27.95
-29.24
-29.02
-26.88
-22.68
-16.71
-9.63
-2.34
4.28
9.61
13.34
15.48
16.25
15.92
14.83
13.36
11.90
10.86
10.50
10.89
11.82
12.92
13.73
13.93
13.40
12.25
10.67
8.78
6.61
4.05
1.03
-2.39
-6.00
-9.46
-12.56
-15.23
-17.67
-20.18
-23.03
-26.29
-29.75
-32.92
-35.16
-35.81
-34.39
-30.77
-25.20
-18.30
-10.86
-3.64
2.80
8.14
12.27
15.20
17.00
17.81
17.80
17.25
16.45
15.62
14.92
14.36
13.89
13.45
13.03
12.62
12.21
11.68
10.84
9.49
7.48
4.83
1.66
-1.77
-5.24
-8.63
-11.91
-15.17
-18.48
-21.95
-25.61
-29.38
-33.07
-36.33
-38.65
-39.44
-38.18
-34.59
-28.83
-21.47
-13.39
-5.49
1.50
7.22
11.65
14.95
17.33
18.93
19.81
20.08
19.93
19.62
19.41
19.46
19.73
19.99
20.00
19.56
18.61
17.16
15.26
12.96
10.25
7.18
3.80
0.26
-3.31
-6.81
-10.25
-13.76
-17.54
-21.74
-26.37
-31.21
-35.71
-39.13
-40.68
-39.82
-36.37
-30.69
-23.54
-15.80
-8.28
-1.46
4.48
9.53
13.72
17.04
19.39
20.73
21.17
20.93
20.38
19.80
19.38
19.15
19.01
18.86
18.64
18.37
18.07
17.69
17.09
16.09
14.49
12.17
9.22
5.87
2.45
-0.70
-3.43
-5.81
-8.19
-11.02
-14.75
-19.50
-25.01
-30.58
-35.18
-37.80
-37.70
-34.69
-29.15
-21.87
-13.83
-5.90
1.37
7.76
13.22
17.73
21.21
23.54
24.67
24.71
23.97
22.92
21.98
21.46
21.42
21.80
22.37
22.94
23.29
23.26
22.69
21.48
19.58
17.01
13.92
10.49
6.95
3.55
0.48
-2.17
-4.49
-6.71
-9.14
-12.02
-15.50
-19.56
-24.06
-28.80
-33.49
-37.66
-40.66
-41.76
-40.32
-36.14
-29.52
-21.31
-12.56
-4.20
3.22
9.57
14.99
19.59
23.31
25.95
27.27
27.21
26.06
24.35
22.75
21.77
21.64
22.24
23.20
24.07
24.53
24.46
23.91
22.99
21.76
20.19
18.19
15.71
12.79
9.61
6.41
3.41
0.75
-1.60
-3.76
-5.95
-8.40
-11.28
-14.71
-18.67
-23.08
-27.71
-32.24
-36.21
-39.07
-40.21
-39.12
-35.54
-29.65
-22.06
-13.67
-5.44
1.94
8.10
13.05
16.93
19.93
22.09
23.39
23.87
23.67
23.16
22.70
22.60
22.94
23.56
24.17
24.51
24.42
23.94
23.19
22.32
21.41
20.43
19.32
17.95
16.17
13.88
11.03
7.70
4.13
0.61
-2.56
-5.25
-7.53
-9.61
-11.77
-14.24
-17.13
-20.49
-24.32
-28.48
-32.62
-36.11
-38.14
-37.91
-35.01
-29.56
-22.19
-13.91
-5.71
1.66
7.80
12.64
16.29
18.89
20.48
21.14
20.96
20.19
19.23
18.51
18.33
18.75
19.61
20.56
21.33
21.81
22.02
21.98
21.67
20.97
19.76
18.03
15.89
13.54
11.12
8.66
6.06
3.23
0.19
-2.95
-6.04
-8.97
-11.77
-14.53
-17.40
-20.49
-23.88
-27.52
-31.21
-34.56
-37.01
-37.94
-36.88
-33.64
-28.38
-21.58
-13.88
-5.94
1.59
8.19
13.48
17.21
19.34
20.04
19.68
18.73
17.67
16.88
16.61
16.89
17.59
18.44
19.15
19.43
19.18
18.44
17.40
16.26
15.14
13.99
12.61
10.78
8.36
5.40
2.14
-1.09
-4.00
-6.46
-8.49
-10.31
-12.22
-14.54
-17.45
-20.94
-24.74
-28.38
-31.18
-32.43
-31.60
-28.43
-23.14
-16.28
-8.71
-1.28
5.27
10.51
14.27
16.55
17.47
17.15
15.84
13.92
11.87
10.19
9.28
9.20
9.76
10.60
11.37
11.86
12.00
11.82
11.33
10.49
9.26
7.53
5.34
2.74
-0.14
-3.18
-6.27
-9.32
-12.32
-15.29
-18.31
-21.45
-24.71
-28.01
-31.13
-33.70
-35.25
-35.31
-33.49
-29.66
-24.04
-17.23
-10.02
-3.26
2.44
6.75
9.67
11.31
11.91
11.72
11.03
10.21
9.60
9.43
9.78
10.50
11.32
11.97
12.26
12.12
11.61
10.77
9.62
8.08
6.10
3.65
0.80
-2.25
-5.29
-8.19
-10.91
-13.56
-16.34
-19.41
-22.87
-26.67
-30.63
-34.39
-37.45
-39.22
-39.13
-36.79
-32.18
-25.69
-18.08
-10.28
-3.07
3.00
7.69
10.99
13.01
13.94
14.00
13.47
12.63
11.71
10.83
10.03
9.32
8.73
8.38
8.38
8.75
9.37
9.92
10.10
9.62
8.32
6.20
3.37
0.04
-3.50
-7.01
-10.26
-13.23
-16.03
-18.93
-22.20
-25.95
-29.97
-33.78
-36.68
-37.96
-37.07
-33.87
-28.57
-21.76
-14.24
-6.76
0.07
5.90
10.56
14.02
16.29
17.37
17.39
16.58
15.30
13.99
13.03
12.59
12.66
13.02
13.42
13.62
13.52
13.08
12.33
11.29
9.90
8.12
5.88
3.19
0.10
-3.26
-6.76
-10.24
-13.64
-16.99
-20.41
-24.02
-27.87
-31.70
-35.01
-37.06
-37.20
-35.06
-30.79
-24.93
-18.18
-11.23
-4.54
1.66
7.20
11.89
15.54
17.97
19.21
19.45
19.00
18.23
17.45
16.93
16.81
17.12
17.76
18.52
19.11
19.27
18.91
18.02
16.64
14.80
12.47
9.65
6.40
2.93
-0.49
-3.63
-6.41
-8.92
-11.36
-13.94
-16.85
-20.21
-24.07
-28.33
-32.62
-36.32
-38.60
-38.68
-36.11
-30.91
-23.68
-15.32
-6.81
1.09
7.87
13.31
17.27
19.74
20.77
20.54
19.43
17.94
16.58
15.75
15.62
16.13
17.03
17.98
18.72
19.08
19.02
18.63
18.02
17.25
16.28
14.97
13.15
10.72
7.72
4.34
0.83
-2.49
-5.47
-8.10
-10.56
-13.12
-16.06
-19.50
-23.27
-26.91
-29.72
-31.05
-30.44
-27.77
-23.30
-17.49
-10.89
-4.07
2.47
8.27
12.96
16.33
18.37
19.32
19.48
19.25
18.98
18.92
19.19
19.77
20.42
20.86
20.84
20.27
19.27
18.09
16.92
15.78
14.47
12.65
10.11
6.84
3.16
-0.56
-3.95
-6.83
-9.22
-11.23
-13.06
-14.91
-17.02
-19.57
-22.66
-26.13
-29.58
-32.35
-33.69
-32.93
-29.77
-24.35
-17.26
-9.39
-1.66
5.21
10.78
14.96
17.80
19.41
19.89
19.41
18.27
16.90
15.80
15.28
15.41
16.00
16.73
17.31
17.60
17.61
17.30
16.61
15.42
13.64
11.34
8.70
5.94
3.25
0.69
-1.76
-4.14
-6.46
-8.70
-10.96
-13.41
-16.31
-19.80
-23.69
-27.42
-30.19
-31.16
-29.83
-26.17
-20.62
-13.93
-6.92
-0.24
5.68
10.63
14.49
17.16
18.59
18.80
17.93
16.32
14.45
12.82
11.79
11.50
11.85
12.58
13.36
13.93
14.13
13.86
13.09
11.77
9.94
7.68
5.11
2.43
-0.23
-2.79
-5.28
-7.83
-10.59
-13.71
-17.24
-21.09
-24.98
-28.45
-30.93
-31.80
-30.66
-27.39
-22.22
-15.73
-8.65
-1.69
4.59
9.83
13.87
16.60
18.02
18.22
17.44
16.07
14.60
13.46
12.95
13.07
13.57
14.08
14.33
14.19
13.75
13.20
12.64
11.95
10.86
9.07
6.46
3.21
-0.24
-3.46
-6.15
-8.33
-10.27
-12.35
-14.92
-18.15
-22.02
-26.33
-30.66
-34.43
-36.88
-37.28
-35.20
-30.60
-23.95
-16.14
-8.14
-0.74
5.56
10.60
14.37
16.94
18.33
18.64
18.06
17.00
15.91
15.16
14.89
15.00
15.27
15.47
15.51
15.42
15.28
15.10
14.72
13.94
12.52
10.39
7.65
4.56
1.39
-1.68
-4.62
-7.55
-10.66
-14.05
-17.73
-21.59
-25.43
-29.01
-31.96
-33.80
-33.98
-31.97
-27.56
-20.96
-12.89
-4.32
3.74
10.57
15.80
19.43
21.66
22.72
22.82
22.17
20.98
19.54
18.12
17.00
16.32
16.11
16.28
16.62
16.94
16.99
16.65
15.88
14.72
13.26
11.59
9.70
7.55
5.10
2.37
-0.55
-3.56
-6.62
-9.80
-13.26
-17.19
-21.64
-26.39
-30.93
-34.54
-36.43
-36.00
-32.97
-27.54
-20.33
-12.23
-4.14
3.18
9.22
13.71
16.59
17.92
17.93
16.97
15.47
13.87
12.56
11.74
11.49
11.68
12.13
12.62
12.92
12.92
12.55
11.80
10.71
9.29
7.53
5.44
3.02
0.31
-2.61
-5.71
-8.95
-12.32
-15.79
-19.32
-22.85
-26.34
-29.66
-32.53
-34.46
-34.87
-33.22
-29.29
-23.38
-16.20
-8.71
-1.73
4.22
8.96
12.56
15.10
16.59
17.04
16.53
15.34
13.92
12.72
12.03
11.89
12.16
12.61
13.08
13.49
13.82
14.03
13.99
13.51
12.37
10.40
7.60
4.11
0.20
-3.80
-7.68
-11.32
-14.78
-18.26
-21.98
-26.05
-30.35
-34.49
-37.80
-39.55
-39.10
-36.13
-30.74
-23.48
-15.19
-6.78
0.96
7.51
12.68
16.46
18.98
20.39
20.87
20.65
20.01
19.25
18.65
18.36
18.42
18.71
19.06
19.33
19.38
19.16
18.59
17.61
16.15
14.11
11.46
8.27
4.71
1.04
-2.48
-5.69
-8.59
-11.35
-14.24
-17.56
-21.49
-26.00
-30.79
-35.32
-38.86
-40.64
-40.08
-36.94
-31.46
-24.26
-16.24
-8.19
-0.74
5.77
11.21
15.53
18.68
20.62
21.37
21.14
20.30
19.33
18.63
18.42
18.66
19.14
19.60
19.89
19.96
19.89
19.71
19.36
18.65
17.31
15.16
12.22
8.74
5.07
1.60
-1.42
-3.92
-6.04
-8.03
-10.19
-12.76
-15.94
-19.82
-24.37
-29.35
-34.27
-38.38
-40.82
-40.87
-38.18
-32.92
-25.76
-17.65
-9.53
-2.07
4.37
9.73
14.06
17.42
19.83
21.29
21.89
21.86
21.53
21.27
21.39
21.99
22.90
23.81
24.36
24.32
23.72
22.75
21.67
20.60
19.51
18.17
16.38
14.00
11.06
7.75
4.30
0.93
-2.21
-5.08
-7.73
-10.33
-13.06
-16.17
-19.85
-24.18
-29.07
-34.14
-38.71
-41.92
-42.94
-41.23
-36.71
-29.90
-21.66
-12.97
-4.66
2.77
9.07
14.17
18.07
20.72
22.16
22.52
22.06
21.18
20.33
19.87
19.99
20.67
21.68
22.70
23.49
23.87
23.83
23.46
22.86
22.06
20.96
19.42
17.26
14.47
11.17
7.61
4.15
1.04
-1.61
-3.84
-5.85
-7.93
-10.39
-13.43
-17.16
-21.44
-25.93
-30.07
-33.18
-34.59
-33.85
-30.84
-25.82
-19.35
-12.17
-4.96
1.77
7.68
12.58
16.27
18.61
19.49
19.05
17.65
15.87
14.30
13.35
13.14
13.51
14.19
14.95
15.64
16.25
16.75
17.08
17.13
16.77
15.91
14.52
12.65
10.42
8.04
5.69
3.53
1.59
-0.24
-2.15
-4.36
-7.04
-10.31
-14.14
-18.38
-22.68
-26.55
-29.35
-30.48
-29.52
-26.43
-21.59
-15.67
-9.46
-3.58
1.60
5.94
9.43
12.02
13.64
14.22
13.85
12.80
11.51
10.38
9.69
9.44
9.49
9.64
9.80
9.99
10.29
10.73
11.20
11.45
11.18
10.22
8.54
6.30
3.75
1.09
-1.54
-4.12
-6.70
-9.38
-12.32
-15.66
-19.43
-23.54
-27.58
-30.94
-32.84
-32.66
-30.07
-25.24
-18.78
-11.49
-4.22
2.39
7.89
12.07
14.78
16.03
15.92
14.76
13.04
11.34
10.11
9.61
9.77
10.32
10.95
11.39
11.58
11.53
11.24
10.65
9.66
8.11
5.99
3.43
0.63
-2.16
-4.77
-7.19
-9.54
-12.03
-14.86
-18.17
-21.90
-25.86
-29.63
-32.67
-34.39
-34.24
-31.93
-27.47
-21.26
-14.03
-6.64
0.13
5.78
10.08
13.04
14.76
15.36
14.95
13.77
12.14
10.59
9.59
9.43
10.16
11.51
13.12
14.59
15.64
16.12
15.95
15.08
13.44
11.05
7.96
4.39
0.60
-3.12
-6.59
-9.78
-12.79
-15.87
-19.26
-23.12
-27.39
-31.72
-35.47
-37.86
-38.14
-35.89
-31.22
-24.72
-17.35
-10.12
-3.73
1.50
5.68
9.04
11.78
13.93
15.39
16.09
16.10
15.65
15.05
14.54
14.21
14.09
14.13
14.29
14.53
14.73
14.70
14.19
12.94
10.90
8.17
5.04
1.83
-1.19
-3.92
-6.41
-8.83
-11.38
-14.25
-17.53
-21.15
-24.87
-28.25
-30.78
-31.93
-31.25
-28.52
-23.89
-17.80
-11.03
-4.37
1.54
6.30
9.87
12.37
13.97
14.81
15.02
14.73
14.17
13.62
13.33
13.45
13.98
14.70
15.38
15.75
15.64
14.98
13.85
12.35
10.62
8.77
6.78
4.60
2.12
-0.71
-3.86
-7.16
-10.45
-13.56
-16.52
-19.48
-22.62
-25.93
-29.11
-31.50
-32.31
-30.87
-26.96
-20.94
-13.66
-6.16
0.66
6.22
10.40
13.31
15.17
16.13
16.33
15.93
15.20
14.49
14.11
14.26
14.87
15.75
16.60
17.20
17.45
17.41
17.12
16.62
15.83
14.60
12.73
10.13
6.82
3.04
-0.93
-4.76
-8.27
-11.44
-14.42
-17.44
-20.64
-24.02
-27.38
-30.26
-32.06
-32.15
-30.08
-25.78
-19.60
-12.30
-4.78
2.16
7.99
12.51
15.75
17.81
18.80
18.93
18.49
17.88
17.48
17.47
17.82
18.26
18.51
18.43
18.07
17.59
17.10
16.59
15.89
14.78
13.14
11.02
8.52
5.87
3.24
0.73
-1.65
-4.03
-6.57
-9.49
-12.91
-16.77
-20.81
-24.55
-27.40
-28.77
-28.26
-25.72
-21.36
-15.70
-9.42
-3.24
2.26
6.79
10.27
12.82
14.59
15.66
16.06
15.84
15.14
14.25
13.50
13.15
13.30
13.86
14.58
15.18
15.46
15.32
14.71
13.65
12.10
10.02
7.40
4.27
0.83
-2.65
-5.92
-8.83
-11.44
-13.99
-16.81
-20.08
-23.71
-27.20
-29.83
-30.80
-29.61
-26.18
-20.94
-14.62
-8.05
-1.84
3.63
8.21
11.85
14.42
15.80
15.91
14.86
13.10
11.22
9.85
9.37
9.79
10.80
11.92
12.73
13.01
12.69
11.86
10.58
8.87
6.78
4.35
1.73
-0.91
-3.48
-5.96
-8.43
-11.05
-13.92
-17.12
-20.61
-24.25
-27.66
-30.32
-31.57
-30.87
-28.01
-23.24
-17.20
-10.66
-4.34
1.34
6.22
10.18
13.15
14.98
15.58
15.03
13.63
11.84
10.13
8.90
8.34
8.46
9.06
9.87
10.55
10.80
10.44
9.41
7.76
5.63
3.19
0.55
-2.17
-4.92
-7.69
-10.49
-13.35
-16.34
-19.53
-22.94
-26.52
-30.01
-32.97
-34.77
-34.81
-32.62
-28.16
-21.84
-14.43
-6.86
0.04
5.74
10.08
13.16
15.23
16.51
17.18
17.33
17.08
16.58
16.02
15.65
15.58
15.82
16.30
16.85
17.32
17.57
17.47
16.82
15.46
13.24
10.21
6.51
2.47
-1.57
-5.34
-8.74
-11.91
-15.12
-18.70
-22.86
-27.49
-32.13
-36.04
-38.31
-38.24
-35.55
-30.46
-23.63
-15.94
-8.22
-1.10
5.03
9.98
13.65
16.06
17.30
17.62
17.31
16.74
16.14
15.65
15.30
15.14
15.21
15.61
16.38
17.39
18.34
18.84
18.54
17.23
14.95
11.93
8.45
4.80
1.15
-2.46
-6.08
-9.81
-13.72
-17.84
-22.17
-26.55
-30.72
-34.23
-36.49
-36.86
-34.94
-30.68
-24.50
-17.16
-9.56
-2.47
3.69
8.81
12.96
16.20
18.52
19.87
20.26
19.90
19.13
18.31
17.70
17.38
17.26
17.19
17.09
16.99
16.96
17.02
17.03
16.75
15.89
14.26
11.89
9.01
5.92
2.95
0.20
-2.39
-5.09
-8.22
-12.06
-16.70
-21.96
-27.40
-32.32
-35.91
-37.45
-36.50
-33.00
-27.41
-20.47
-13.05
-5.90
0.55
6.15
10.94
14.98
18.19
20.43
21.60
21.83
21.48
21.02
20.80
20.94
21.29
21.55
21.46
20.91
19.98
18.81
17.47
15.92
14.02
11.68
8.85
5.67
2.32
-0.96
-4.02
-6.80
-9.37
-11.89
-14.57
-17.60
-21.03
-24.78
-28.52
-31.66
-33.50
-33.42
-31.04
-26.38
-19.93
-12.44
-4.77
2.41
8.65
13.76
17.70
20.50
22.19
22.90
22.84
22.37
21.89
21.71
21.95
22.46
22.96
23.16
22.89
22.14
21.07
19.81
18.42
16.81
14.79
12.20
9.06
5.56
2.06
-1.11
-3.80
-6.07
-8.16
-10.37
-12.93
-15.93
-19.34
-23.02
-26.67
-29.86
-31.99
-32.42
-30.71
-26.82
-21.10
-14.26
-7.04
-0.07
6.28
11.80
16.33
19.68
21.68
22.29
21.71
20.36
18.75
17.32
16.36
15.91
15.80
15.80
15.73
15.50
15.12
14.63
14.04
13.27
12.16
10.59
8.54
6.16
3.67
1.24
-1.04
-3.29
-5.67
-8.38
-11.51
-15.06
-18.88
-22.74
-26.29
-29.05
-30.51
-30.22
-27.98
-23.83
-18.15
-11.56
-4.77
1.53
6.81
10.77
13.35
14.72
15.13
14.85
14.14
13.23
12.38
11.82
11.73
12.17
13.00
13.99
14.87
15.50
15.79
15.76
15.32
14.39
12.84
10.62
7.83
4.71
1.55
-1.42
-4.09
-6.57
-9.13
-12.12
-15.78
-20.12
-24.70
-28.74
-31.33
-31.68
-29.45
-24.91
-18.78
-11.98
-5.38
0.48
5.31
9.04
11.65
13.13
13.54
13.03
11.94
10.70
9.70
9.16
9.08
9.33
9.70
10.04
10.25
10.31
10.13
9.60
8.60
7.08
5.10
2.82
0.45
-1.85
-4.06
-6.27
-8.69
-11.48
-14.74
-18.47
-22.55
-26.68
-30.42
-33.16
-34.19
-32.96
-29.28
-23.46
-16.27
-8.69
-1.61
4.41
9.18
12.79
15.39
17.06
17.80
17.69
16.96
15.95
15.04
14.46
14.20
14.11
13.97
13.64
13.12
12.46
11.68
10.66
9.22
7.18
4.54
1.48
-1.66
-4.62
-7.28
-9.77
-12.33
-15.26
-18.77
-22.88
-27.36
-31.74
-35.33
-37.41
-37.38
-34.97
-30.32
-23.95
-16.62
-9.19
-2.35
3.43
7.91
11.06
12.99
13.86
13.91
13.41
12.72
12.19
12.13
12.66
13.70
14.93
15.94
16.42
16.26
15.56
14.52
13.26
11.78
9.95
7.64
4.91
1.91
-1.12
-4.05
-6.89
-9.78
-12.91
-16.40
-20.22
-24.22
-28.07
-31.40
-33.71
-34.47
-33.20
-29.71
-24.17
-17.16
-9.58
-2.31
3.97
8.94
12.57
14.97
16.31
16.70
16.30
15.37
14.21
13.19
12.55
12.37
12.57
12.98
13.43
13.81
14.00
13.90
13.39
12.33
10.67
8.41
5.66
2.57
-0.65
-3.86
-6.94
-9.86
-12.73
-15.73
-19.04
-22.75
-26.67
-30.32
-33.02
-34.01
-32.71
-28.90
-22.90
-15.42
-7.49
-0.07
6.20
11.06
14.59
17.00
18.46
19.01
18.67
17.56
16.09
14.75
14.00
14.04
14.71
15.62
16.37
16.73
16.73
16.49
16.12
15.55
14.57
12.94
10.55
7.46
3.94
0.30
-3.17
-6.34
-9.26
-12.10
-15.12
-18.47
-22.13
-25.75
-28.73
-30.37
-30.11
-27.71
-23.31
-17.40
-10.65
-3.78
2.61
8.08
12.35
15.32
17.05
17.72
17.59
16.94
16.03
15.12
14.36
13.90
13.77
13.96
14.38
14.87
15.26
15.37
15.05
14.23
12.89
11.10
8.91
6.44
3.73
0.93
-1.84
-4.42
-6.74
-8.88
-11.10
-13.70
-16.92
-20.75
-24.85
-28.57
-31.11
-31.77
-30.11
-26.09
-20.12
-12.94
-5.45
1.56
7.55
12.33
15.94
18.51
20.08
20.64
20.19
18.86
17.03
15.22
13.87
13.24
13.27
13.63
13.98
14.10
13.95
13.65
13.23
12.63
11.62
10.00
7.70
4.89
1.87
-0.99
-3.54
-5.83
-8.08
-10.56
-13.43
-16.65
-19.96
-22.93
-25.06
-25.84
-24.89
-22.07
-17.53
-11.72
-5.34
0.84
6.16
10.20
12.81
14.05
14.19
13.54
12.48
11.41
10.63
10.38
10.69
11.40
12.20
12.76
12.78
12.14
10.89
9.18
7.22
5.17
3.14
1.17
-0.76
-2.71
-4.76
-7.03
-9.63
-12.67
-16.20
-20.13
-24.22
-28.05
-31.09
-32.76
-32.56
-30.29
-26.10
-20.44
-13.99
-7.47
-1.42
3.78
8.03
11.27
13.48
14.64
14.77
14.04
12.78
11.44
10.45
10.06
10.30
11.01
11.83
12.41
12.47
11.84
10.47
8.43
5.79
2.71
-0.66
-4.11
-7.41
-10.43
-13.15
-15.75
-18.52
-21.78
-25.58
-29.66
-33.34
-35.80
-36.26
-34.28
-29.88
-23.54
-16.05
-8.32
-1.14
4.93
9.62
12.95
15.09
16.29
16.75
16.57
15.84
14.64
13.11
11.53
10.22
9.44
9.32
9.74
10.43
10.98
11.04
10.40
9.03
7.02
4.54
1.76
-1.16
-4.11
-7.00
-9.92
-12.99
-16.42
-20.37
-24.75
-29.09
-32.63
-34.47
-33.88
-30.63
-25.07
-18.01
-10.49
-3.36
2.83
7.89
11.83
14.69
16.45
17.13
16.85
15.96
14.93
14.16
13.84
13.92
14.20
14.47
14.62
14.59
14.35
13.74
12.60
10.79
8.33
5.41
2.31
-0.74
-3.64
-6.51
-9.56
-12.95
-16.75
-20.80
-24.79
-28.33
-31.03
-32.51
-32.44
-30.61
-26.92
-21.54
-14.88
-7.62
-0.53
5.74
10.78
14.50
17.07
18.70
19.60
19.90
19.71
19.17
18.50
17.91
17.53
17.36
17.28
17.13
16.85
16.37
15.66
14.67
13.26
11.35
8.94
6.13
3.14
0.17
-2.63
-5.25
-7.81
-10.54
-13.71
-17.49
-21.86
-26.50
-30.80
-33.97
-35.24
-34.05
-30.39
-24.64
-17.59
-10.16
-3.09
3.15
8.43
12.81
16.36
19.03
20.68
21.22
20.74
19.57
18.19
17.09
16.47
16.34
16.47
16.58
16.52
16.26
15.88
15.44
14.90
14.11
12.85
10.96
8.42
5.43
2.34
-0.44
-2.73
-4.64
-6.52
-8.85
-11.99
-15.98
-20.58
-25.24
-29.27
-32.00
-32.85
-31.49
-27.90
-22.37
-15.58
-8.36
-1.52
4.45
9.37
13.32
16.46
18.88
20.51
21.32
21.39
21.00
20.56
20.37
20.58
21.04
21.47
21.61
21.33
20.68
19.78
18.76
17.62
16.26
14.57
12.46
9.99
7.28
4.53
1.86
-0.67
-3.10
-5.58
-8.31
-11.52
-15.31
-19.64
-24.21
-28.47
-31.67
-33.09
-32.17
-28.81
-23.37
-16.57
-9.22
-2.02
4.62
10.52
15.63
19.82
22.91
24.77
25.42
25.15
24.40
23.62
23.12
22.97
23.06
23.19
23.25
23.15
22.87
22.38
21.64
20.52
18.90
16.71
13.97
10.78
7.34
3.90
0.69
-2.17
-4.74
-7.18
-9.74
-12.62
-15.90
-19.57
-23.47
-27.33
-30.68
-32.96
-33.55
-32.02
-28.28
-22.69
-15.97
-8.98
-2.43
3.20
7.75
11.26
13.75
15.25
15.82
15.61
14.96
14.30
14.01
14.27
14.99
15.89
16.67
17.16
17.40
17.53
17.64
17.66
17.31
16.30
14.43
11.78
8.63
5.37
2.35
-0.30
-2.65
-4.87
-7.16
-9.74
-12.73
-16.22
-20.08
-23.95
-27.23
-29.19
-29.19
-26.95
-22.62
-16.81
-10.32
-3.88
1.98
6.98
10.96
13.79
15.38
15.75
15.12
13.93
12.63
11.64
11.12
11.06
11.31
11.73
12.19
12.58
12.77
12.64
12.06
10.97
9.38
7.35
4.97
2.35
-0.36
-3.01
-5.50
-7.84
-10.12
-12.59
-15.47
-18.87
-22.66
-26.43
-29.54
-31.26
-30.95
-28.32
-23.45
-16.87
-9.44
-2.13
4.19
8.92
11.87
13.17
13.28
12.72
11.92
11.10
10.29
9.42
8.44
7.47
6.67
6.24
6.25
6.60
7.06
7.38
7.33
6.80
5.77
4.27
2.42
0.31
-1.97
-4.38
-6.93
-9.70
-12.79
-16.25
-20.03
-23.92
-27.52
-30.26
-31.49
-30.69
-27.63
-22.51
-15.94
-8.81
-1.95
4.02
8.79
12.33
14.73
16.12
16.60
16.26
15.29
13.97
12.65
11.64
11.11
11.04
11.29
11.59
11.67
11.34
10.51
9.25
7.72
6.06
4.32
2.47
0.38
-2.11
-5.02
-8.31
-11.84
-15.49
-19.21
-23.00
-26.82
-30.42
-33.28
-34.68
-34.00
-30.89
-25.55
-18.65
-11.13
-3.88
2.52
7.86
12.17
15.54
18.02
19.59
20.17
19.80
18.62
16.88
14.87
12.91
11.23
10.02
9.29
8.98
8.94
8.98
8.97
8.79
8.38
7.67
6.58
5.07
3.10
0.73
-1.98
-4.94
-8.09
-11.45
-15.07
-18.96
-22.96
-26.73
-29.63
-30.99
-30.24
-27.19
-22.16
-15.87
-9.18
-2.87
2.60
7.03
10.39
12.68
13.88
14.06
13.44
12.38
11.34
10.62
10.36
10.46
10.73
11.03
11.33
11.66
12.01
12.26
12.17
11.51
10.17
8.19
5.74
3.01
0.18
-2.64
-5.38
-8.03
-10.64
-13.34
-16.33
-19.71
-23.30
-26.61
-28.86
-29.29
-27.47
-23.50
-17.99
-11.84
-5.90
-0.75
3.37
6.54
8.90
10.59
11.70
12.31
12.50
12.36
11.99
11.46
10.80
10.11
9.47
8.97
8.77
8.88
9.24
9.65
9.79
9.38
8.23
6.32
3.77
0.83
-2.27
-5.27
-8.06
-10.55
-12.83
-15.07
-17.48
-20.21
-23.11
-25.74
-27.39
-27.32
-25.07
-20.71
-14.84
-8.33
-2.02
3.54
8.15
11.84
14.74
16.84
18.03
18.20
17.40
15.88
14.08
12.49
11.45
11.05
11.19
11.61
12.03
12.22
12.07
11.50
10.52
9.13
7.36
5.26
2.97
0.61
-1.66
-3.85
-6.05
-8.45
-11.32
-14.82
-18.90
-23.23
-27.17
-29.93
-30.79
-29.28
-25.39
-19.56
-12.57
-5.34
1.33
6.90
11.11
13.97
15.62
16.19
15.92
15.06
13.86
12.63
11.62
10.97
10.76
10.91
11.31
11.75
12.02
11.89
11.17
9.79
7.79
5.30
2.56
-0.22
-2.88
-5.28
-7.40
-9.24
-10.93
-12.69
-14.79
-17.47
-20.71
-24.14
-27.03
-28.47
-27.69
-24.38
-18.82
-11.81
-4.41
2.45
8.19
12.62
15.79
17.86
18.98
19.24
18.82
17.87
16.62
15.29
14.03
12.89
11.90
11.08
10.46
10.04
9.77
9.52
9.06
8.21
6.80
4.84
2.43
-0.30
-3.16
-6.03
-8.84
-11.61
-14.43
-17.44
-20.71
-24.22
-27.75
-30.87
-32.98
-33.50
-31.98
-28.32
-22.76
-15.90
-8.55
-1.47
4.73
9.73
13.44
15.94
17.38
17.89
17.63
16.75
15.49
14.19
13.15
12.63
12.72
13.31
14.11
14.80
15.07
14.79
13.95
12.67
11.03
9.09
6.81
4.19
1.30
-1.67
-4.51
-7.11
-9.55
-12.12
-15.13
-18.79
-22.96
-27.17
-30.69
-32.76
-32.78
-30.48
-25.98
-19.78
-12.60
-5.23
1.60
7.39
11.86
14.97
16.84
17.69
17.79
17.43
16.88
16.36
16.05
16.05
16.34
16.84
17.38
17.79
17.90
17.65
17.00
15.92
14.39
12.34
9.76
6.73
3.46
0.21
-2.76
-5.36
-7.69
-10.00
-12.60
-15.70
-19.36
-23.34
-27.20
-30.32
-32.07
-31.95
-29.74
-25.60
-19.96
-13.47
-6.77
-0.46
5.07
9.58
13.02
15.40
16.84
17.47
17.46
17.06
16.57
16.27
16.41
17.01
17.92
18.78
19.20
18.94
18.00
16.58
14.98
13.44
12.02
10.59
8.96
6.98
4.62
2.03
-0.62
-3.24
-5.85
-8.65
-11.85
-15.59
-19.82
-24.28
-28.47
-31.78
-33.54
-33.21
-30.48
-25.49
-18.75
-11.08
-3.38
3.61
9.48
14.11
17.56
19.90
21.20
21.53
21.04
20.04
18.98
18.20
17.90
17.99
18.20
18.20
17.75
16.84
15.55
14.08
12.54
10.92
9.11
7.00
4.58
2.01
-0.52
-2.85
-4.95
-6.96
-9.09
-11.51
-14.26
-17.27
-20.39
-23.43
-26.12
-28.08
-28.87
-28.02
-25.26
-20.68
-14.70
-8.03
-1.39
4.65
9.73
13.68
16.40
17.84
18.03
17.16
15.64
13.97
12.63
11.94
11.95
12.55
13.49
14.52
15.46
16.19
16.59
16.50
15.75
14.22
11.85
8.77
5.23
1.57
-1.89
-4.91
-7.41
-9.45
-11.22
-13.00
-15.12
-17.83
-21.15
-24.80
-28.16
-30.42
-30.80
-28.85
-24.65
-18.73
-11.90
-5.05
1.15
6.27
10.16
12.75
14.05
14.16
13.26
11.70
9.99
8.61
7.95
8.08
8.83
9.82
10.72
11.32
11.61
11.70
11.63
11.33
10.55
9.07
6.75
3.74
0.41
-2.81
-5.58
-7.83
-9.78
-11.81
-14.20
-17.03
-20.10
-22.97
-25.11
-26.04
-25.46
-23.25
-19.55
-14.70
-9.14
-3.40
2.02
6.72
10.39
12.86
14.07
14.07
13.13
11.63
10.00
8.61
7.67
7.20
7.11
7.28
7.62
7.99
8.31
8.45
8.29
7.72
6.68
5.14
3.12
0.70
-1.99
-4.75
-7.42
-10.00
-12.64
-15.66
-19.28
-23.45
-27.75
-31.43
-33.66
-33.81
-31.63
-27.27
-21.27
-14.32
-7.15
-0.41
5.42
9.99
13.18
15.02
15.72
15.58
14.91
14.00
13.02
12.07
11.24
10.60
10.22
10.12
10.24
10.43
10.50
10.26
9.56
8.38
6.71
4.65
2.23
-0.46
-3.36
-6.34
-9.34
-12.30
-15.31
-18.47
-21.87
-25.46
-28.95
-31.79
-33.28
-32.80
-30.01
-25.04
-18.48
-11.16
-3.97
2.42
7.65
11.63
14.45
16.24
17.12
17.22
16.75
15.98
15.25
14.83
14.83
15.18
15.65
15.94
15.86
15.29
14.33
13.07
11.62
9.96
7.99
5.66
2.99
0.16
-2.65
-5.28
-7.72
-10.12
-12.69
-15.55
-18.71
-21.98
-25.01
-27.34
-28.43
-27.73
-24.87
-19.80
-12.94
-5.10
2.68
9.48
14.69
18.18
20.11
20.84
20.75
20.10
19.14
18.04
17.03
16.22
15.68
15.35
15.10
14.84
14.57
14.28
13.99
13.63
13.03
12.07
10.67
8.85
6.75
4.51
2.24
-0.04
-2.40
-4.94
-7.80
-11.04
-14.68
-18.56
-22.33
-25.41
-27.08
-26.70
-23.92
-18.85
-12.08
-4.43
3.23
10.25
16.24
21.07
24.73
27.24
28.65
29.13
28.94
28.42
27.91
27.61
27.57
27.67
27.74
27.61
27.13
26.29
25.10
23.57
21.72
19.51
16.92
13.97
10.71
7.25
3.67
0.04
-3.59
-7.14
-10.60
-14.01
-17.54
-21.37
-25.58
-29.95
-33.92
-36.69
-37.53
-36.05
-32.44
-27.30
-21.43
-15.51
-9.95
-4.97
-0.71
2.67
4.96
6.10
6.25
5.78
5.19
4.89
5.05
5.59
6.25
6.76
7.00
7.01
6.94
6.97
7.11
7.23
7.07
6.39
5.06
3.10
0.67
-2.04
-4.90
-7.80
-10.67
-13.40
-15.87
-18.05
-20.10
-22.24
-24.69
-27.35
-29.73
-31.06
-30.53
-27.71
-22.77
-16.43
-9.65
-3.29
2.14
6.44
9.60
11.68
12.68
12.68
11.93
10.86
9.98
9.73
10.30
11.56
13.18
14.72
15.80
16.23
16.04
15.38
14.46
13.43
12.25
10.82
9.01
6.76
4.20
1.52
-1.07
-3.46
-5.66
-7.82
-10.10
-12.62
-15.48
-18.67
-22.18
-25.87
-29.43
-32.37
-34.06
-33.92
-31.63
-27.32
-21.56
-15.17
-8.95
-3.44
1.20
5.04
8.27
10.93
12.98
14.20
14.52
13.98
12.89
11.75
11.06
11.21
12.29
14.02
15.87
17.25
17.72
17.19
15.87
14.07
12.08
9.99
7.74
5.22
2.40
-0.62
-3.57
-6.17
-8.25
-9.85
-11.20
-12.66
-14.55
-17.08
-20.28
-24.00
-27.91
-31.54
-34.28
-35.56
-34.89
-32.01
-27.06
-20.54
-13.21
-5.89
0.75
6.28
10.49
13.37
15.02
15.55
15.25
14.41
13.46
12.80
12.72
13.30
14.38
15.61
16.61
17.08
16.89
16.11
14.87
13.34
11.63
9.74
7.64
5.30
2.73
0.05
-2.58
-4.99
-7.04
-8.71
-10.10
-11.45
-12.99
-14.93
-17.35
-20.18
-23.20
-26.02
-28.07
-28.79
-27.68
-24.60
-19.78
-13.81
-7.50
-1.50
3.72
8.04
11.48
14.14
16.01
17.08
17.36
17.01
16.27
15.46
14.87
14.71
15.01
15.63
16.36
16.96
17.19
16.97
16.30
15.31
14.16
12.98
11.80
10.57
9.16
7.47
5.49
3.35
1.24
-0.64
-2.30
-3.92
-5.86
-8.47
-11.87
-15.88
-20.06
-23.81
-26.60
-28.03
-27.86
-25.99
-22.51
-17.64
-11.83
-5.67
0.22
5.32
9.34
12.22
14.07
15.06
15.34
15.08
14.51
13.88
13.45
13.38
13.65
14.08
14.40
14.40
13.98
13.22
12.32
11.41
10.51
9.45
7.96
5.87
3.20
0.21
-2.67
-5.08
-6.87
-8.20
-9.42
-10.92
-13.01
-15.79
-19.17
-22.91
-26.66
-29.88
-31.92
-32.19
-30.29
-26.25
-20.59
-14.10
-7.70
-2.06
2.49
5.95
8.43
10.09
11.02
11.33
11.20
10.95
10.88
11.20
11.90
12.77
13.51
13.84
13.70
13.21
12.61
12.05
11.49
10.68
9.30
7.17
4.35
1.21
-1.81
-4.37
-6.36
-7.96
-9.48
-11.25
-13.42
-16.05
-19.04
-22.14
-25.01
-27.19
-28.12
-27.32
-24.57
-20.01
-14.14
-7.71
-1.48
3.93
8.20
11.23
13.07
13.83
13.66
12.75
11.40
10.00
8.90
8.33
8.27
8.52
8.77
8.82
8.59
8.15
7.57
6.80
5.73
4.24
2.34
0.22
-1.87
-3.71
-5.28
-6.76
-8.41
-10.43
-12.90
-15.75
-18.81
-21.84
-24.48
-26.27
-26.66
-25.23
-21.84
-16.79
-10.75
-4.60
0.91
5.34
8.55
10.62
11.67
11.77
11.02
9.58
7.79
6.10
4.94
4.54
4.85
5.59
6.42
7.04
7.32
7.23
6.80
6.02
4.81
3.10
0.84
-1.87
-4.84
-7.80
-10.55
-13.02
-15.36
-17.83
-20.73
-24.11
-27.68
-30.81
-32.72
-32.76
-30.65
-26.59
-21.14
-15.02
-8.88
-3.20
1.74
5.80
8.90
11.04
12.33
12.96
13.16
13.14
13.01
12.83
12.63
12.52
12.61
12.98
13.55
14.05
14.08
13.30
11.56
9.03
6.07
3.11
0.47
-1.75
-3.67
-5.56
-7.74
-10.41
-13.69
-17.50
-21.52
-25.27
-28.09
-29.32
-28.45
-25.36
-20.33
-14.02
-7.32
-1.05
4.19
8.16
10.94
12.73
13.79
14.25
14.17
13.65
12.87
12.09
11.55
11.39
11.55
11.85
12.05
12.00
11.67
11.13
10.43
9.54
8.35
6.69
4.45
1.67
-1.53
-4.88
-8.12
-11.03
-13.57
-15.91
-18.36
-21.25
-24.66
-28.30
-31.44
-33.19
-32.81
-30.03
-25.18
-19.00
-12.35
-5.86
0.16
5.71
10.78
15.27
18.86
21.24
22.29
22.21
21.47
20.66
20.20
20.28
20.77
21.38
21.76
21.67
20.99
19.80
18.24
16.55
14.88
13.32
11.80
10.19
8.35
6.23
3.96
1.68
-0.45
-2.46
-4.53
-6.91
-9.82
-13.28
-17.22
-21.44
-25.71
-29.75
-33.25
-35.77
-36.84
-36.07
-33.35
-28.88
-23.12
-16.70
-10.19
-4.04
1.47
6.26
10.33
13.75
16.62
18.98
20.84
22.21
23.15
23.80
24.38
25.01
25.74
26.45
26.96
27.17
27.13
26.95
26.71
26.34
25.60
24.21
22.04
19.14
15.83
12.52
9.55
7.07
5.07
3.30
1.48
-0.67
-3.33
-6.54
-10.24
-14.37
-18.91
-23.84
-29.06
-34.21
-38.56
-41.18
-41.23
-38.35
-32.87
-25.75
-18.20
-11.21
-5.23
-0.12
4.51
8.97
13.21
16.87
19.54
21.10
21.73
21.88
22.00
22.27
22.67
23.02
23.21
23.18
23.01
22.74
22.33
21.63
20.54
19.01
17.14
15.18
13.34
11.84
10.69
9.77
8.84
7.63
5.93
3.74
1.16
-1.57
-4.26
-6.82
-9.33
-11.95
-14.87
-18.20
-21.90
-25.71
-29.15
-31.58
-32.38
-31.12
-27.72
-22.50
-16.14
-9.42
-3.03
2.60
7.35
11.26
14.37
16.68
18.14
18.75
18.69
18.31
18.03
18.17
18.82
19.89
21.08
22.16
22.93
23.31
23.29
22.86
22.03
20.89
19.52
18.04
16.48
14.76
12.74
10.30
7.45
4.42
1.52
-0.96
-2.95
-4.58
-6.13
-7.89
-10.02
-12.58
-15.54
-18.77
-22.10
-25.17
-27.48
-28.42
-27.45
-24.31
-19.16
-12.58
-5.41
1.50
7.52
12.32
15.83
18.15
19.43
19.80
19.46
18.66
17.73
17.02
16.80
17.11
17.84
18.72
19.49
19.95
19.99
19.59
18.79
17.67
16.34
14.89
13.35
11.70
9.82
7.59
5.01
2.20
-0.62
-3.24
-5.52
-7.52
-9.40
-11.38
-13.67
-16.39
-19.52
-22.91
-26.20
-28.83
-30.21
-29.81
-27.37
-22.97
-17.02
-10.21
-3.25
3.16
8.55
12.65
15.36
16.74
16.89
16.00
14.38
12.44
10.63
9.36
8.85
9.06
9.74
10.53
11.09
11.24
10.98
10.37
9.52
8.48
7.28
5.92
4.42
2.82
1.17
-0.48
-2.11
-3.69
-5.24
-6.75
-8.28
-9.90
-11.73
-13.86
-16.28
-18.76
-20.87
-22.05
-21.79
-19.83
-16.29
-11.57
-6.25
-0.95
3.83
7.75
10.59
12.32
13.00
12.86
12.15
11.20
10.24
9.43
8.88
8.62
8.69
9.06
9.65
10.28
10.71
10.71
10.11
8.88
7.10
4.94
2.60
0.29
-1.86
-3.75
-5.45
-7.10
-8.95
-11.24
-14.10
-17.45
-21.04
-24.40
-27.01
-28.34
-28.05
-25.95
-22.18
-17.11
-11.36
-5.62
-0.48
3.63
6.58
8.49
9.61
10.20
10.48
10.52
10.32
9.86
9.17
8.45
7.94
7.83
8.20
8.87
9.53
9.79
9.32
8.01
5.92
3.22
0.16
-3.03
-6.15
-9.03
-11.55
-13.70
-15.62
-17.58
-19.88
-22.73
-26.07
-29.54
-32.52
-34.33
-34.41
-32.50
-28.71
-23.45
-17.30
-10.95
-5.04
-0.04
3.83
6.55
8.29
9.28
9.71
9.70
9.34
8.75
8.12
7.70
7.69
8.17
9.03
10.00
10.76
11.02
10.66
9.63
8.03
5.96
3.60
1.13
-1.24
-3.30
-5.00
-6.42
-7.84
-9.61
-12.05
-15.25
-19.02
-22.80
-25.82
-27.32
-26.74
-23.99
-19.35
-13.52
-7.30
-1.38
3.72
7.79
10.80
12.80
13.83
13.95
13.28
12.08
10.70
9.51
8.79
8.59
8.79
9.15
9.47
9.69
9.87
10.09
10.33
10.42
10.05
9.02
7.26
4.91
2.22
-0.57
-3.34
-6.08
-8.88
-11.81
-14.93
-18.21
-21.48
-24.42
-26.55
-27.31
-26.29
-23.35
-18.77
-13.14
-7.14
-1.40
3.70
7.96
11.33
13.79
15.35
16.01
15.89
15.22
14.32
13.54
13.14
13.24
13.80
14.59
15.30
15.63
15.50
14.95
14.17
13.30
12.37
11.22
9.69
7.71
5.34
2.86
0.51
-1.57
-3.50
-5.55
-8.09
-11.35
-15.32
-19.64
-23.69
-26.77
-28.27
-27.83
-25.50
-21.58
-16.58
-11.03
-5.40
-0.04
4.75
8.77
11.87
13.97
15.04
15.22
14.72
13.85
13.01
12.47
12.38
12.69
13.21
13.76
14.20
14.48
14.58
14.41
13.86
12.80
11.19
9.06
6.55
3.84
1.04
-1.73
-4.30
-6.52
-8.25
-9.52
-10.59
-11.88
-13.84
-16.73
-20.39
-24.31
-27.66
-29.51
-29.18
-26.46
-21.71
-15.64
-9.16
-3.01
2.37
6.81
10.33
12.96
14.68
15.47
15.40
14.72
13.81
13.04
12.59
12.47
12.48
12.41
12.15
11.73
11.27
10.93
10.74
10.59
10.28
9.57
8.26
6.37
4.02
1.50
-0.95
-3.16
-5.11
-6.89
-8.68
-10.72
-13.19
-16.19
-19.67
-23.34
-26.66
-28.92
-29.43
-27.79
-24.05
-18.73
-12.64
-6.56
-1.03
3.75
7.75
10.92
13.17
14.35
14.50
13.89
12.94
12.15
11.76
11.71
11.77
11.68
11.38
11.03
10.87
11.00
11.41
11.87
12.08
11.78
10.80
9.14
6.90
4.31
1.58
-1.12
-3.74
-6.35
-9.08
-12.03
-15.24
-18.68
-22.29
-25.89
-29.19
-31.69
-32.78
-31.85
-28.63
-23.33
-16.69
-9.70
-3.31
1.95
5.97
9.01
11.39
13.26
14.62
15.35
15.39
14.88
14.10
13.37
12.87
12.63
12.53
12.45
12.30
12.07
11.74
11.27
10.53
9.35
7.56
5.13
2.16
-1.05
-4.13
-6.74
-8.74
-10.26
-11.72
-13.59
-16.20
-19.57
-23.36
-26.97
-29.76
-31.25
-31.14
-29.36
-25.95
-21.12
-15.19
-8.70
-2.29
3.44
8.03
11.27
13.21
14.05
14.07
13.57
12.86
12.28
12.08
12.40
13.19
14.22
15.19
15.86
16.12
15.97
15.46
14.61
13.43
11.92
10.10
8.00
5.65
3.09
0.34
-2.56
-5.54
-8.51
-11.41
-14.24
-17.12
-20.17
-23.48
-26.95
-30.21
-32.72
-33.82
-33.05
-30.26
-25.75
-20.11
-13.99
-7.92
-2.15
3.21
8.02
12.09
15.09
16.78
17.18
16.59
15.55
14.62
14.17
14.26
14.72
15.24
15.60
15.68
15.53
15.19
14.66
13.81
12.46
10.50
7.92
4.96
1.92
-0.89
-3.28
-5.24
-6.90
-8.49
-10.22
-12.34
-15.06
-18.48
-22.53
-26.80
-30.67
-33.30
-34.00
-32.38
-28.55
-23.03
-16.61
-10.04
-3.87
1.58
6.17
9.86
12.60
14.41
15.36
15.60
15.38
15.04
14.90
15.14
15.77
16.60
17.35
17.76
17.67
17.16
16.42
15.69
15.09
14.52
13.73
12.42
10.39
7.70
4.59
1.46
-1.39
-3.77
-5.75
-7.57
-9.58
-12.08
-15.26
-19.01
-22.92
-26.25
-28.17
-27.98
-25.42
-20.78
-14.79
-8.34
-2.18
3.26
7.89
11.81
15.08
17.67
19.47
20.37
20.37
19.65
18.55
17.41
16.51
15.97
15.67
15.45
15.13
14.67
14.15
13.69
13.29
12.78
11.85
10.24
7.85
4.86
1.64
-1.41
-4.00
-6.07
-7.79
-9.50
-11.57
-14.26
-17.63
-21.45
-25.23
-28.36
-30.13
-30.03
-27.81
-23.58
-17.77
-11.05
-4.18
2.20
7.62
11.82
14.77
16.57
17.41
17.57
17.33
16.92
16.49
16.06
15.57
15.03
14.51
14.21
14.29
14.80
15.50
15.95
15.69
14.44
12.28
9.55
6.74
4.19
2.01
0.07
-1.87
-4.01
-6.41
-9.04
-11.83
-14.75
-17.79
-20.80
-23.47
-25.27
-25.63
-24.12
-20.67
-15.67
-9.80
-3.87
1.45
5.80
9.01
11.17
12.45
12.97
12.91
12.46
11.85
11.35
11.14
11.27
11.72
12.33
12.97
13.46
13.68
13.51
12.88
11.77
10.23
8.40
6.43
4.47
2.54
0.59
-1.50
-3.81
-6.30
-8.91
-11.54
-14.13
-16.70
-19.16
-21.36
-22.96
-23.46
-22.37
-19.41
-14.66
-8.55
-1.81
4.77
10.52
15.04
18.21
20.05
20.75
20.54
19.67
18.42
17.07
15.81
14.78
14.07
13.62
13.39
13.30
13.22
13.03
12.56
11.67
10.27
8.31
5.88
3.16
0.35
-2.32
-4.69
-6.71
-8.45
-10.12
-12.02
-14.47
-17.59
-21.23
-24.93
-27.95
-29.52
-29.08
-26.45
-21.92
-16.12
-9.79
-3.63
1.87
6.43
9.86
12.06
13.05
12.98
12.17
11.06
10.01
9.23
8.76
8.50
8.33
8.19
8.08
8.05
8.11
8.16
8.08
7.66
6.78
5.39
3.55
1.41
-0.86
-3.15
-5.45
-7.84
-10.46
-13.43
-16.74
-20.19
-23.42
-25.89
-27.05
-26.41
-23.78
-19.29
-13.51
-7.20
-1.16
4.05
8.16
11.18
13.22
14.33
14.55
13.90
12.59
10.95
9.39
8.23
7.56
7.29
7.21
7.10
6.85
6.48
6.04
5.56
5.07
4.51
3.82
2.96
1.84
0.41
-1.33
-3.31
-5.47
-7.76
-10.27
-13.08
-16.23
-19.49
-22.30
-23.90
-23.60
-21.12
-16.70
-11.05
-5.10
0.38
4.96
8.59
11.38
13.47
14.92
15.73
15.93
15.62
15.03
14.38
13.85
13.50
13.31
13.20
13.05
12.78
12.34
11.69
10.79
9.52
7.78
5.51
2.73
-0.42
-3.71
-6.91
-9.96
-12.95
-16.15
-19.75
-23.75
-27.82
-31.34
-33.57
-33.91
-32.04
-28.06
-22.46
-15.93
