1523176862.00
64.000000
-0.00
-0.00
-0.00
-0.00
-0.00
-0.00
-0.00
-0.00
-0.00
-0.00
0.00
0.01
0.01
-0.00
-0.03
-0.05
-0.05
0.00
0.13
0.36
0.66
1.01
1.37
1.72
2.06
2.40
2.79
3.24
3.80
4.42
5.06
5.66
6.20
6.68
7.15
7.68
8.31
9.14
10.09
11.04
11.88
12.56
13.14
13.76
14.65
15.96
17.91
20.32
22.90
25.38
27.58
29.57
31.68
34.32
37.81
42.54
48.15
54.10
59.83
64.97
69.58
74.14
79.34
85.71
93.76
103.00
112.62
121.73
129.77
136.75
143.30
150.75
157.77
166.64
177.95
191.79
206.97
220.57
228.25
225.36
208.53
176.87
132.76
80.05
23.07
-34.94
-92.44
-149.16
-205.23
-260.37
-313.74
-363.86
-409.81
-450.87
-486.44
-515.65
-537.11
-549.06
-549.76
-538.12
-513.90
-478.31
-433.45
-381.96
-326.46
-269.21
-211.94
-155.89
-102.10
-51.44
-4.89
36.69
72.63
102.67
126.94
145.95
160.41
171.03
178.44
183.02
185.08
184.83
182.55
178.59
173.36
167.27
160.67
153.80
146.80
139.76
132.70
125.68
118.75
111.98
105.46
99.23
93.33
87.76
82.55
77.69
73.21
69.10
65.37
62.04
59.10
56.57
54.43
52.67
51.24
50.09
49.14
48.26
47.32
46.14
44.55
42.38
39.51
35.85
31.40
26.22
20.38
14.08
7.53
1.02
-5.21
-10.89
-15.84
-19.88
-22.94
-24.99
-26.05
-26.22
-25.63
-24.42
-22.75
-20.75
-18.54
-16.23
-13.86
-11.46
-9.08
-6.71
-4.36
-2.01
0.38
2.82
5.35
7.98
10.77
13.67
16.66
19.72
22.84
26.02
29.27
32.61
36.08
39.74
43.53
47.39
51.33
55.35
59.49
63.78
68.26
73.02
78.13
83.46
88.92
94.45
100.00
105.57
111.12
116.66
122.22
127.82
133.18
138.09
142.33
145.64
147.75
148.28
146.75
142.44
136.68
129.94
122.56
114.75
106.72
98.62
90.58
82.76
75.30
68.37
61.80
55.54
49.51
43.70
38.11
32.75
27.69
22.99
18.78
14.96
11.46
8.25
5.31
2.62
0.16
-2.10
-4.16
-5.98
-7.66
-9.22
-10.60
-11.71
-12.40
-12.48
-11.76
-10.04
-7.17
-3.12
2.09
8.34
15.45
23.15
31.13
39.03
46.52
53.29
59.06
63.63
66.88
68.75
69.27
68.52
66.63
63.76
60.09
55.80
51.06
46.02
40.78
35.45
30.08
24.74
19.49
14.39
9.49
4.83
0.42
-3.77
-7.78
-11.63
-15.36
-18.91
-22.24
-25.26
-27.93
-30.24
-32.23
-33.99
-35.62
-37.15
-38.58
-39.83
-40.79
-41.40
-41.73
-41.95
-42.31
-43.07
-44.33
-46.06
-48.03
-49.96
-51.66
-53.22
-54.95
-57.34
-60.87
-65.74
-71.80
-78.55
-85.38
-91.85
-97.97
-104.22
-111.36
-120.12
-130.85
-143.29
-156.71
-170.22
-183.16
-195.41
-207.38
-219.89
-233.91
-250.47
-270.38
-293.86
-320.07
-346.59
-369.76
-385.47
-390.67
-384.52
-368.90
-347.52
-324.40
-302.35
-282.21
-263.16
-243.83
-223.34
-201.77
-179.91
-158.63
-138.36
-119.02
-100.35
-82.26
-65.03
-49.26
-35.58
-24.24
-15.04
-7.37
-0.45
6.27
12.94
19.28
24.76
28.93
31.60
33.04
33.78
34.41
35.35
36.61
37.88
38.69
38.64
37.57
35.62
33.08
30.31
27.53
24.83
22.08
18.99
15.27
10.79
5.79
0.89
-2.94
-4.69
-3.65
0.21
6.32
13.65
21.14
27.97
33.76
38.47
42.22
45.16
47.38
48.90
49.77
50.05
49.82
49.18
48.25
47.10
45.87
44.65
43.57
42.66
41.94
41.39
40.88
40.30
39.46
38.21
36.46
34.26
31.78
29.28
27.01
25.10
23.51
21.98
20.23
17.91
14.84
11.09
6.94
2.94
-0.26
-2.02
-1.83
0.48
4.63
9.96
15.62
20.81
25.10
28.53
31.37
33.91
36.16
37.84
38.65
38.55
37.91
37.36
37.38
38.07
39.01
39.56
39.27
38.11
36.51
34.97
33.79
32.91
32.00
30.73
28.94
26.71
24.22
21.53
18.55
15.08
10.96
6.26
1.36
-3.12
-6.46
-8.13
-7.92
-6.04
-2.99
0.58
4.07
7.09
9.45
11.17
12.44
13.44
14.33
15.21
16.13
17.13
18.25
19.44
20.56
21.37
21.56
20.97
19.58
17.60
15.30
12.91
10.47
7.87
4.97
1.78
-1.52
-4.51
-6.75
-7.89
-7.85
-6.88
-5.55
-4.58
-4.75
-6.53
-9.96
-14.58
-19.48
-23.58
-26.02
-26.32
-24.55
-21.22
-17.01
-12.58
-8.33
-4.44
-1.03
1.68
3.32
3.54
2.21
-0.41
-3.67
-6.75
-8.99
-10.06
-10.04
-9.30
-8.24
-7.17
-6.21
-5.42
-4.78
-4.35
-4.15
-4.21
-4.53
-5.16
-6.23
-7.86
-10.08
-12.71
-15.33
-17.37
-18.25
-17.58
-15.22
-11.35
-6.38
-0.83
4.73
9.77
13.90
16.87
18.69
19.54
19.69
19.38
18.77
17.91
16.85
15.64
14.37
13.16
12.05
11.01
9.99
8.89
7.68
6.35
4.95
3.43
1.79
-0.09
-2.25
-4.75
-7.65
-10.92
-14.43
-17.88
-20.82
-22.68
-22.98
-21.43
-18.06
-13.18
-7.27
-0.89
5.46
11.33
16.43
20.56
23.58
25.49
26.37
26.38
25.77
24.82
23.79
22.89
22.21
21.73
21.30
20.74
19.94
18.88
17.56
16.01
14.27
12.32
10.20
7.99
5.77
3.62
1.55
-0.51
-2.70
-5.14
-7.96
-11.07
-14.31
-17.30
-19.56
-20.59
-20.05
-17.90
-14.41
-10.18
-5.85
-1.90
1.54
4.55
7.37
10.15
12.81
15.12
16.82
17.76
18.00
17.75
17.28
16.76
16.27
15.83
15.42
15.09
14.86
14.77
14.71
14.51
13.95
12.86
11.27
9.36
7.40
5.64
4.17
2.89
1.63
0.31
-1.05
-2.31
-3.33
-4.13
-4.93
-6.01
-7.62
-9.82
-12.41
-14.99
-17.15
-18.52
-18.91
-18.22
-16.56
-14.08
-11.02
-7.63
-4.14
-0.73
2.49
5.44
7.99
10.00
11.36
12.05
12.26
12.28
12.44
12.92
13.68
14.48
15.08
15.39
15.50
15.60
15.85
16.25
16.62
16.76
16.48
15.74
14.67
13.43
12.17
10.94
9.72
8.42
6.97
5.32
3.45
1.40
-0.82
-3.16
-5.62
-8.10
-10.37
-12.04
-12.58
-11.62
-9.11
-5.41
-1.28
2.48
5.34
7.26
8.69
10.15
11.86
13.44
14.11
13.09
10.09
5.62
0.81
-3.17
-5.58
-6.46
-6.37
-6.03
-5.81
-5.64
-5.15
-4.07
-2.47
-0.81
0.35
0.69
0.29
-0.44
-1.09
-1.51
-2.01
-3.12
-5.27
-8.47
-12.21
-15.72
-18.23
-19.30
-18.96
-17.55
-15.43
-12.87
-9.99
-6.85
-3.63
-0.58
1.96
3.74
4.54
4.33
3.15
1.20
-1.18
-3.56
-5.48
-6.60
-6.75
-6.05
-4.77
-3.30
-2.06
-1.46
-1.78
-3.16
-5.51
-8.48
-11.61
-14.32
-16.29
-17.48
-18.20
-18.89
-19.99
-21.61
-23.46
-25.00
-25.61
-24.87
-22.72
-19.44
-15.49
-11.36
-7.37
-3.75
-0.60
1.95
3.86
5.11
5.77
6.06
6.17
6.35
6.69
7.16
7.60
7.83
7.67
7.05
6.00
4.65
3.20
1.83
0.59
-0.56
-1.72
-3.06
-4.68
-6.64
-8.99
-11.73
-14.81
-18.10
-21.33
-24.00
-25.64
-25.84
-24.47
-21.72
-18.06
-14.04
-10.16
-6.73
-3.77
-1.19
1.15
3.31
5.22
6.67
7.55
7.89
7.87
7.78
7.83
8.09
8.47
8.79
8.93
8.86
8.71
8.54
8.35
7.98
7.23
5.99
4.25
2.20
0.06
-1.95
-3.79
-5.54
-7.39
-9.57
-12.18
-15.18
-18.38
-21.38
-23.67
-24.75
-24.18
-21.80
-17.82
-12.71
-7.18
-1.89
2.71
6.46
9.46
11.94
14.09
15.91
17.32
18.21
18.57
18.53
18.42
18.51
18.96
19.73
20.58
21.21
21.39
21.09
20.45
19.60
18.68
17.64
16.35
14.63
12.46
9.92
7.24
4.63
2.27
0.16
-1.78
-3.68
-5.66
-7.84
-10.37
-13.39
-16.99
-21.09
-25.36
-29.17
-31.78
-32.59
-31.33
-28.15
-23.57
-18.24
-12.73
-7.38
-2.36
2.31
6.55
10.31
13.42
15.77
17.30
18.01
18.03
17.53
16.81
16.16
15.86
16.03
16.61
17.42
18.18
18.71
18.89
18.73
18.27
17.57
16.67
15.63
14.52
13.35
12.09
10.64
8.92
6.80
4.33
1.63
-1.11
-3.74
-6.25
-8.74
-11.48
-14.64
-18.24
-21.98
-25.27
-27.34
-27.55
-25.59
-21.65
-16.35
-10.49
-4.79
0.32
4.68
8.35
11.40
13.87
15.67
16.75
17.23
17.31
17.34
17.55
17.99
18.55
19.03
19.29
19.33
19.22
19.05
18.87
18.62
18.21
17.61
16.82
15.82
14.54
12.79
10.43
7.52
4.30
1.15
-1.57
-3.74
-5.51
-7.24
-9.33
-11.99
-15.16
-18.55
-21.68
-24.06
-25.28
-25.05
-23.25
-19.99
-15.57
-10.43
-5.07
0.03
4.54
8.19
10.86
12.57
13.42
13.65
13.55
13.39
13.30
13.34
13.45
13.52
13.49
13.33
13.06
12.68
12.21
11.65
11.03
10.31
9.44
8.28
6.71
4.69
2.32
-0.14
-2.41
-4.31
-5.89
-7.42
-9.26
-11.68
-14.68
-17.97
-21.08
-23.45
-24.58
-24.17
-22.09
-18.40
-13.35
-7.37
-1.00
5.16
10.53
14.72
17.51
18.97
19.32
18.92
18.11
17.16
16.26
15.49
14.88
14.45
14.26
14.31
14.60
15.04
15.54
15.96
16.15
15.96
15.24
13.88
11.77
8.90
5.42
1.63
-2.05
-5.24
-7.70
-9.52
-11.07
-12.89
-15.47
-18.99
-23.20
-27.42
-30.78
-32.41
-31.77
-28.83
-24.04
-18.20
-12.13
-6.46
-1.49
2.76
6.39
9.46
11.91
13.65
14.64
15.02
15.03
15.01
15.15
15.51
15.98
16.35
16.51
16.40
16.12
15.80
15.53
15.34
15.13
14.68
13.76
12.20
10.00
7.32
4.44
1.63
-0.92
-3.17
-5.26
-7.41
-9.88
-12.88
-16.52
-20.75
-25.28
-29.64
-33.16
-35.16
-35.14
-32.86
-28.51
-22.63
-15.94
-9.20
-2.98
2.38
6.81
10.35
13.11
15.17
16.56
17.33
17.56
17.40
17.07
16.83
16.88
17.29
17.97
18.68
19.15
19.14
18.61
17.65
16.47
15.26
14.07
12.82
11.31
9.38
7.01
4.35
1.66
-0.76
-2.73
-4.19
-5.31
-6.39
-7.74
-9.71
-12.53
-16.28
-20.79
-25.65
-30.14
-33.45
-34.83
-33.87
-30.61
-25.53
-19.40
-12.98
-6.84
-1.32
3.43
7.43
10.65
13.12
14.89
16.11
16.89
17.40
17.76
18.04
18.29
18.57
18.90
19.19
19.32
19.18
18.70
17.93
16.96
15.89
14.72
13.34
11.58
9.36
6.73
3.90
1.17
-1.24
-3.23
-4.93
-6.63
-8.66
-11.33
-14.80
-19.01
-23.68
-28.30
-32.26
-34.82
-35.43
-33.76
-29.87
-24.19
-17.46
-10.46
-3.90
1.75
6.34
9.87
12.44
14.20
15.25
15.73
15.76
15.54
15.24
15.02
14.95
15.02
15.12
15.13
14.90
14.39
13.61
12.55
11.19
9.46
7.27
4.60
1.56
-1.61
-4.62
-7.24
-9.44
-11.39
-13.49
-16.14
-19.63
-23.91
-28.49
-32.54
-35.09
-35.37
-33.11
-28.60
-22.60
-16.04
-9.72
-4.09
0.70
4.72
8.04
10.65
12.48
13.49
13.78
13.55
13.07
12.60
12.32
12.27
12.43
12.73
13.11
13.44
13.63
13.49
12.87
11.62
9.69
7.11
4.02
0.68
-2.66
-5.71
-8.36
-10.60
-12.62
-14.71
-17.21
-20.39
-24.36
-28.90
-33.46
-37.12
-38.90
-38.00
-34.17
-27.87
-20.16
-12.31
-5.33
0.32
4.82
8.64
12.21
15.63
18.72
21.12
22.65
23.35
23.54
23.57
23.77
24.24
24.97
25.80
26.51
26.91
26.86
26.34
25.44
24.28
22.91
21.30
19.27
16.61
13.25
9.33
5.17
1.16
-2.39
-5.39
-7.97
-10.48
-13.31
-16.84
-21.28
-26.56
-32.28
-37.73
-42.05
-44.41
-44.30
-41.63
-36.67
-29.96
-22.17
-13.92
-5.79
1.75
8.34
13.82
18.16
21.54
24.16
26.23
27.85
29.09
29.97
30.57
31.02
31.47
31.96
32.48
32.93
33.18
33.16
32.84
32.25
31.32
29.93
27.96
25.38
22.37
19.31
16.61
14.50
12.87
11.37
9.49
6.95
3.74
0.21
-3.18
-6.14
-8.64
-10.99
-13.65
-17.12
-21.64
-27.16
-33.18
-38.92
-43.38
-45.57
-44.86
-41.11
-34.72
-26.57
-17.74
-9.18
-1.50
5.05
10.55
15.16
19.03
22.17
24.60
26.36
27.63
28.63
29.52
30.33
30.98
31.32
31.27
30.83
30.12
29.27
28.38
27.46
26.46
25.32
23.96
22.35
20.48
18.35
16.02
13.49
10.83
8.02
5.08
2.00
-1.21
-4.54
-7.99
-11.51
-15.13
-18.85
-22.72
-26.80
-31.06
-35.18
-38.62
-40.60
-40.32
-37.34
-31.72
-24.07
-15.37
-6.69
1.22
7.92
13.33
17.53
20.56
22.44
23.15
22.83
21.80
20.47
19.35
18.76
18.82
19.42
20.25
20.98
21.38
21.32
20.84
20.09
19.14
17.98
16.46
14.40
11.63
8.18
4.25
0.18
-3.70
-7.11
-9.97
-12.35
-14.48
-16.73
-19.48
-23.06
-27.58
-32.77
-37.95
-42.20
-44.50
-44.15
-40.93
-35.16
-27.60
-19.16
-10.73
-2.96
3.83
9.57
14.37
18.39
21.72
24.35
26.23
27.32
27.66
27.39
26.76
26.03
25.42
25.05
24.96
25.04
25.14
25.04
24.56
23.58
22.09
20.13
17.79
15.15
12.23
9.06
5.65
2.08
-1.52
-5.00
-8.18
-10.98
-13.38
-15.50
-17.62
-20.11
-23.38
-27.67
-32.95
-38.75
-44.22
-48.33
-50.10
-48.94
-44.80
-38.20
-30.01
-21.21
-12.62
-4.73
2.26
8.37
13.74
18.40
22.36
25.53
27.85
29.23
29.71
29.35
28.37
27.06
25.76
24.71
24.07
23.80
23.80
23.87
23.86
23.64
23.13
22.19
20.75
18.82
16.51
14.04
11.62
9.34
7.12
4.80
2.18
-0.74
-3.82
-6.84
-9.63
-12.19
-14.67
-17.40
-20.71
-24.81
-29.64
-34.83
-39.62
-43.04
-44.14
-42.30
-37.44
-30.12
-21.40
-12.46
-4.30
2.54
7.98
12.23
15.56
18.17
20.12
21.45
22.19
22.47
22.50
22.50
22.68
23.11
23.73
24.39
24.92
25.14
25.02
24.62
24.01
23.27
22.37
21.17
19.52
17.33
14.66
11.71
8.72
5.89
3.29
0.91
-1.35
-3.62
-6.00
-8.62
-11.64
-15.22
-19.49
-24.37
-29.50
-34.23
-37.75
-39.27
-38.27
-34.63
-28.68
-21.14
-12.90
-4.88
2.17
7.83
11.99
14.83
16.64
17.68
18.17
18.18
17.81
17.20
16.56
16.09
15.90
15.94
16.05
16.07
15.95
15.72
15.46
15.12
14.49
13.27
11.25
8.38
4.94
1.35
-2.02
-4.97
-7.56
-10.03
-12.71
-15.85
-19.57
-23.81
-28.29
-32.51
-35.77
-37.32
-36.55
-33.17
-27.47
-20.16
-12.27
-4.79
1.55
6.42
9.89
12.20
13.71
14.65
15.15
15.26
15.04
14.57
14.02
13.55
13.25
13.15
13.13
13.06
12.76
12.12
11.10
9.67
7.81
5.43
2.55
-0.73
-4.13
-7.30
-9.96
-12.06
-13.87
-15.90
-18.75
-22.79
-27.90
-33.45
-38.36
-41.45
-41.82
-39.07
-33.46
-25.83
-17.24
-8.78
-1.24
5.06
10.10
14.07
17.22
19.64
21.36
22.38
22.72
22.55
22.15
21.75
21.53
21.54
21.68
21.76
21.64
21.21
20.46
19.45
18.20
16.73
14.94
12.69
9.88
6.60
3.06
-0.41
-3.51
-6.15
-8.44
-10.67
-13.23
-16.39
-20.32
-24.97
-30.07
-35.12
-39.40
-42.08
-42.44
-40.07
-35.08
-28.08
-20.00
-11.84
-4.33
2.10
7.43
11.84
15.57
18.76
21.41
23.44
24.77
25.39
25.41
25.03
24.52
24.04
23.66
23.35
23.00
22.56
21.98
21.28
20.42
19.40
18.14
16.68
15.08
13.42
11.75
10.03
8.16
6.01
3.52
0.71
-2.26
-5.28
-8.24
-11.09
-13.85
-16.58
-19.43
-22.60
-26.37
-30.89
-36.06
-41.32
-45.71
-48.08
-47.52
-43.61
-36.74
-27.86
-18.20
-8.87
-0.53
6.60
12.61
17.67
21.84
25.07
27.29
28.52
28.90
28.74
28.36
28.03
27.90
27.96
28.09
28.12
27.94
27.48
26.75
25.80
24.67
23.37
21.85
20.06
17.99
15.65
13.21
10.87
8.79
7.00
5.39
3.74
1.81
-0.50
-3.11
-5.79
-8.30
-10.44
-12.27
-13.96
-15.81
-18.13
-21.15
-25.03
-29.75
-35.08
-40.50
-45.25
-48.36
-49.02
-46.81
-41.88
-34.93
-26.92
-18.79
-11.20
-4.42
1.54
6.73
11.16
14.81
17.63
19.66
21.04
22.01
22.79
23.57
24.45
25.38
26.26
26.97
27.37
27.41
27.07
26.41
25.46
24.22
22.70
20.89
18.88
16.76
14.68
12.71
10.85
8.98
6.89
4.47
1.72
-1.22
-4.08
-6.62
-8.70
-10.36
-11.79
-13.23
-14.94
-17.18
-20.13
-23.87
-28.22
-32.74
-36.67
-39.14
-39.41
-37.11
-32.41
-25.96
-18.68
-11.47
-5.00
0.38
4.60
7.75
9.93
11.22
11.72
11.58
11.03
10.40
10.02
10.17
10.92
12.24
13.88
15.51
16.80
17.43
17.27
16.33
14.84
13.05
11.25
9.55
7.89
6.16
4.19
1.97
-0.41
-2.83
-5.22
-7.53
-9.80
-12.02
-14.14
-16.20
-18.27
-20.57
-23.39
-26.91
-30.98
-35.08
-38.35
-39.87
-38.92
-35.33
-29.47
-22.24
-14.68
-7.69
-1.79
2.92
6.64
9.60
11.95
13.66
14.71
15.10
15.04
14.81
14.68
14.84
15.26
15.85
16.45
16.95
17.29
17.41
17.26
16.79
15.94
14.76
13.30
11.57
9.59
7.33
4.71
1.78
-1.35
-4.46
-7.40
-10.05
-12.48
-14.85
-17.32
-20.03
-23.02
-26.36
-30.08
-34.15
-38.34
-42.17
-44.91
-45.82
-44.40
-40.53
-34.66
-27.53
-19.99
-12.69
-6.01
-0.08
5.03
9.34
12.83
15.55
17.59
19.09
20.21
20.97
21.43
21.60
21.52
21.31
21.07
20.87
20.68
20.44
20.05
19.44
18.55
17.39
16.01
14.44
12.75
10.96
9.08
7.01
4.65
1.93
-1.16
-4.48
-7.76
-10.71
-13.18
-15.19
-16.98
-18.84
-21.07
-23.80
-27.00
-30.46
-33.76
-36.38
-37.66
-37.05
-34.30
-29.58
-23.52
-16.97
-10.77
-5.43
-1.05
2.56
5.67
8.48
11.02
13.19
14.89
16.12
16.93
17.46
17.85
18.18
18.50
18.89
19.33
19.82
20.29
20.62
20.65
20.27
19.48
18.33
16.99
15.59
14.22
12.83
11.32
9.48
7.17
4.41
1.34
-1.78
-4.67
-7.14
-9.20
-10.98
-12.76
-14.86
-17.51
-20.88
-24.89
-29.24
-33.27
-36.17
-37.15
-35.71
-31.80
-25.92
-18.94
-11.79
-5.24
0.25
4.56
7.73
9.93
11.27
11.89
11.90
11.44
10.70
9.93
9.40
9.31
9.69
10.35
11.02
11.40
11.30
10.71
9.76
8.63
7.45
6.25
4.91
3.30
1.32
-0.98
-3.53
-6.17
-8.80
-11.34
-13.77
-16.16
-18.60
-21.21
-24.14
-27.45
-31.11
-34.84
-38.09
-40.13
-40.25
-38.02
-33.45
-27.04
-19.61
-12.01
-4.88
1.45
6.89
11.46
15.16
17.93
19.73
20.63
20.88
20.81
20.75
20.88
21.23
21.66
22.02
22.16
22.03
21.65
21.01
20.13
18.97
17.51
15.70
13.47
10.75
7.54
3.95
0.22
-3.34
-6.47
-9.10
-11.34
-13.54
-16.08
-19.28
-23.28
-27.93
-32.79
-37.12
-40.07
-40.85
-38.99
-34.53
-27.99
-20.23
-12.16
-4.54
2.17
7.84
12.53
16.45
19.76
22.57
24.89
26.60
27.56
27.74
27.25
26.38
25.48
24.85
24.56
24.46
24.27
23.74
22.74
21.31
19.65
17.98
16.44
15.08
13.71
12.15
10.21
7.85
5.16
2.32
-0.48
-3.18
-5.75
-8.24
-10.73
-13.28
-16.00
-19.11
-22.83
-27.30
-32.34
-37.29
-41.12
-42.75
-41.39
-36.88
-29.82
-21.25
-12.41
-4.33
2.45
7.81
11.96
15.29
18.16
20.81
23.30
25.53
27.30
28.43
28.85
28.67
28.08
27.34
26.65
26.11
25.69
25.35
25.00
24.54
23.92
23.01
21.73
19.98
17.78
15.24
12.52
9.80
7.23
4.84
2.58
0.30
-2.06
-4.50
-6.94
-9.24
-11.41
-13.64
-16.29
-19.75
-24.21
-29.45
-34.79
-39.22
-41.65
-41.34
-38.13
-32.50
-25.36
-17.77
-10.56
-4.16
1.36
6.15
10.38
14.08
17.15
19.44
20.86
21.50
21.56
21.31
21.04
20.86
20.83
20.85
20.79
20.49
19.88
18.98
17.88
16.71
15.49
14.23
12.88
11.37
9.72
7.98
6.23
4.46
2.60
0.53
-1.81
-4.29
-6.73
-8.93
-10.80
-12.53
-14.46
-16.96
-20.32
-24.53
-29.29
-33.98
-37.81
-39.89
-39.54
-36.47
-30.87
-23.52
-15.48
-7.83
-1.32
3.84
7.89
11.23
14.22
16.95
19.32
21.16
22.38
23.09
23.47
23.74
24.04
24.38
24.72
25.02
25.25
25.46
25.65
25.81
25.78
25.32
24.19
22.29
19.74
16.91
14.29
12.16
10.56
9.14
7.38
4.87
1.49
-2.44
-6.42
-9.94
-12.78
-15.06
-17.16
-19.54
-22.54
-26.32
-30.79
-35.63
-40.31
-44.12
-46.27
-46.11
-43.32
-38.07
-31.02
-23.09
-15.24
-8.16
-2.12
2.93
7.23
10.99
14.30
17.16
19.55
21.49
23.07
24.38
25.46
26.26
26.73
26.83
26.57
26.05
25.43
24.86
24.40
24.05
23.67
23.08
22.12
20.71
18.93
16.99
15.11
13.45
11.99
10.51
8.74
6.49
3.75
0.74
-2.30
-5.13
-7.68
-10.06
-12.48
-15.17
-18.27
-21.85
-25.82
-29.96
-33.84
-36.80
-38.22
-37.56
-34.68
-29.84
-23.69
-17.02
-10.57
-4.77
0.23
4.48
8.16
11.37
14.11
16.35
18.03
19.13
19.71
19.93
19.94
19.92
20.00
20.19
20.42
20.60
20.67
20.58
20.30
19.72
18.76
17.31
15.36
13.06
10.68
8.51
6.69
5.16
3.68
1.96
-0.16
-2.67
-5.38
-8.03
-10.47
-12.67
-14.75
-16.92
-19.36
-22.22
-25.54
-29.20
-32.88
-36.06
-37.97
-37.82
-35.01
-29.44
-21.64
-12.64
-3.75
3.89
9.59
13.19
14.96
15.34
14.76
13.56
12.02
10.36
8.83
7.70
7.21
7.47
8.46
9.93
11.46
12.54
12.75
11.95
10.25
8.05
5.77
3.76
2.17
0.98
0.09
-0.62
-1.29
-2.08
-3.16
-4.69
-6.70
-9.13
-11.80
-14.56
-17.37
-20.23
-23.23
-26.45
-29.91
-33.46
-36.82
-39.49
-40.88
-40.42
-37.75
-32.95
-26.51
-19.27
-12.15
-5.87
-0.80
3.08
6.04
8.32
10.07
11.29
11.98
12.27
12.43
12.82
13.67
14.92
16.34
17.58
18.39
18.68
18.57
18.20
17.69
17.07
16.30
15.30
13.95
12.15
9.78
6.87
3.57
0.19
-2.91
-5.60
-7.94
-10.27
-12.95
-16.27
-20.33
-25.00
-29.97
-34.80
-38.88
-41.50
-42.01
-39.99
-35.45
-28.94
-21.33
-13.59
-6.43
-0.23
4.99
9.36
13.05
16.12
18.57
20.44
21.82
22.84
23.64
24.26
24.68
24.82
24.68
24.26
23.60
22.72
21.61
20.26
18.70
16.97
15.15
13.23
11.04
8.44
5.29
1.67
-2.10
-5.59
-8.46
-10.57
-12.16
-13.65
-15.56
-18.23
-21.70
-25.67
-29.56
-32.65
-34.29
-33.96
-31.50
-27.08
-21.15
-14.37
-7.39
-0.77
5.09
10.01
13.95
16.90
18.91
20.01
20.26
19.76
18.73
17.45
16.23
15.32
14.81
14.61
14.53
14.34
13.93
13.27
12.43
11.48
10.42
9.15
7.56
5.55
3.18
0.58
-2.04
-4.47
-6.57
-8.37
-10.08
-12.00
-14.44
-17.66
-21.70
-26.38
-31.14
-35.24
-37.83
-38.18
-35.95
-31.26
-24.70
-17.14
-9.43
-2.18
4.27
9.85
14.55
18.31
21.01
22.57
23.18
23.22
23.18
23.44
24.15
25.18
26.20
26.86
26.95
26.41
25.34
23.92
22.30
20.58
18.79
16.79
14.39
11.38
7.66
3.34
-1.31
-5.89
-10.03
-13.53
-16.38
-18.78
-21.08
-23.69
-26.96
-30.98
-35.43
-39.56
-42.39
-42.98
-40.83
-36.03
-29.32
-21.66
-13.97
-6.85
-0.50
5.06
9.88
13.92
17.06
19.25
20.55
21.24
21.66
22.10
22.62
23.09
23.26
22.86
21.83
20.34
18.72
17.33
16.35
15.73
15.19
14.34
12.85
10.56
7.54
4.06
0.47
-2.88
-5.79
-8.23
-10.40
-12.59
-15.15
-18.28
-21.93
-25.78
-29.22
-31.53
-32.06
-30.43
-26.63
-21.07
-14.48
-7.67
-1.35
4.08
8.56
12.26
15.46
18.30
20.73
22.51
23.47
23.59
23.13
22.46
21.89
21.51
21.14
20.50
19.42
17.97
16.44
15.21
14.41
13.90
13.29
12.20
10.38
7.92
5.00
1.93
-1.10
-3.94
-6.51
-8.75
-10.68
-12.41
-14.23
-16.48
-19.47
-23.17
-27.25
-31.00
-33.62
-34.41
-32.99
-29.40
-24.05
-17.63
-10.94
-4.69
0.63
4.77
7.76
9.80
11.12
11.90
12.31
12.43
12.36
12.20
12.10
12.08
12.15
12.23
12.26
12.22
12.16
12.15
12.14
12.00
11.43
10.14
7.98
5.04
1.64
-1.81
-4.98
-7.73
-10.16
-12.53
-15.13
-18.12
-21.49
-24.98
-28.12
-30.29
-30.86
-29.40
-25.91
-20.85
-14.98
-9.18
-4.06
0.17
3.62
6.52
9.10
11.32
13.12
14.45
15.39
16.14
16.87
17.62
18.29
18.70
18.73
18.41
17.85
17.14
16.30
15.24
13.73
11.63
8.90
5.68
2.23
-1.16
-4.29
-7.08
-9.57
-11.91
-14.34
-17.11
-20.42
-24.28
-28.48
-32.45
-35.38
-36.43
-35.09
-31.34
-25.72
-19.08
-12.28
-5.93
-0.26
4.81
9.44
13.67
17.39
20.37
22.39
23.30
23.16
22.16
20.63
18.89
17.27
16.00
15.13
14.55
13.99
13.14
11.79
9.81
7.30
4.46
1.52
-1.35
-4.09
-6.82
-9.76
-13.12
-17.01
-21.29
-25.58
-29.21
-31.44
-31.62
-29.44
-25.03
-19.00
-12.22
-5.62
0.16
4.89
8.69
11.91
14.83
17.51
19.83
21.61
22.76
23.40
23.75
23.97
24.07
23.92
23.34
22.29
20.85
19.18
17.41
15.50
13.25
10.49
7.17
3.43
-0.43
-4.11
-7.41
-10.38
-13.25
-16.34
-19.87
-23.81
-27.74
-30.91
-32.50
-31.88
-28.89
-23.93
-17.75
-11.19
-4.91
0.77
5.88
10.49
14.65
18.28
21.22
23.31
24.55
25.10
25.19
25.12
25.03
24.94
24.79
24.46
23.85
22.96
21.86
20.69
19.50
18.26
16.85
15.09
12.82
10.01
6.75
3.24
-0.26
-3.51
-6.36
-8.76
-10.86
-12.90
-15.22
-18.15
-21.88
-26.32
-31.03
-35.31
-38.33
-39.38
-38.02
-34.28
-28.65
-21.89
-14.86
-8.27
-2.58
2.08
5.84
8.90
11.45
13.56
15.21
16.37
17.04
17.38
17.59
17.87
18.33
18.91
19.47
19.85
19.97
19.87
19.63
19.28
18.71
17.78
16.32
14.32
11.89
9.22
6.47
3.73
0.99
-1.72
-4.37
-6.92
-9.39
-11.90
-14.69
-17.96
-21.73
-25.68
-29.19
-31.51
-31.95
-30.19
-26.35
-20.98
-14.88
-8.82
-3.34
1.36
5.31
8.59
11.25
13.25
14.46
14.91
14.78
14.35
13.95
13.79
13.88
14.05
14.09
13.80
13.17
12.29
11.33
10.39
9.44
8.32
6.81
4.74
2.10
-0.91
-3.97
-6.78
-9.16
-11.09
-12.70
-14.20
-15.85
-17.92
-20.61
-23.93
-27.66
-31.24
-33.88
-34.82
-33.56
-30.09
-24.95
-18.94
-12.90
-7.38
-2.55
1.70
5.58
9.15
12.30
14.79
16.43
17.21
17.33
17.08
16.74
16.47
16.31
16.23
16.16
16.10
15.98
15.72
15.26
14.52
13.49
12.19
10.62
8.71
6.37
3.58
0.42
-2.85
-5.97
-8.75
-11.21
-13.57
-16.16
-19.27
-23.01
-27.19
-31.30
-34.62
-36.46
-36.27
-33.89
-29.56
-23.82
-17.36
-10.80
-4.55
1.17
6.23
10.53
13.94
16.36
17.82
18.45
18.52
18.31
18.06
17.92
18.01
18.28
18.65
18.95
18.99
18.60
17.70
16.36
14.77
13.18
11.73
10.44
9.14
7.57
5.48
2.79
-0.41
-3.85
-7.20
-10.20
-12.76
-14.92
-16.93
-19.05
-21.54
-24.54
-27.99
-31.64
-35.00
-37.48
-38.50
-37.69
-34.92
-30.47
-24.82
-18.61
-12.42
-6.69
-1.62
2.79
6.59
9.90
12.73
15.04
16.84
18.23
19.36
20.43
21.53
22.59
23.43
23.87
23.87
23.50
22.97
22.44
21.97
21.51
20.93
20.06
18.84
17.24
15.32
13.24
11.19
9.35
7.77
6.34
4.82
2.89
0.36
-2.75
-6.14
-9.43
-12.29
-14.65
-16.70
-18.77
-21.20
-24.19
-27.80
-31.91
-36.28
-40.47
-43.88
-45.77
-45.49
-42.69
-37.57
-30.80
-23.32
-16.04
-9.53
-3.99
0.68
4.64
8.02
10.80
12.96
14.49
15.52
16.23
16.80
17.36
17.99
18.72
19.54
20.35
21.00
21.36
21.28
20.75
19.86
18.72
17.44
16.07
14.62
13.09
11.49
9.86
8.18
6.43
4.52
2.42
0.16
-2.14
-4.34
-6.27
-7.82
-9.03
-9.98
-10.91
-12.15
-14.06
-16.91
-20.74
-25.24
-29.73
-33.31
-35.12
-34.61
-31.69
-26.77
-20.59
-13.95
-7.61
-2.05
2.47
5.92
8.39
10.09
11.24
12.09
12.84
13.61
14.40
15.14
15.74
16.17
16.43
16.63
16.85
17.16
17.48
17.70
17.68
17.32
16.62
15.64
14.49
13.24
11.98
10.69
9.32
7.77
5.93
3.76
1.31
-1.30
-3.90
-6.32
-8.52
-10.53
-12.48
-14.60
-17.10
-20.24
-24.14
-28.74
-33.60
-37.93
-40.75
-41.25
-39.04
-34.34
-27.94
-20.86
-14.06
-8.16
-3.35
0.53
3.78
6.64
9.16
11.22
12.60
13.19
13.04
12.44
11.84
11.61
11.94
12.76
13.77
14.71
15.40
15.81
16.02
16.04
15.83
15.26
14.19
12.57
10.51
8.17
5.71
3.25
0.81
-1.61
-3.95
-6.13
-8.03
-9.65
-11.16
-12.82
-14.96
-17.78
-21.32
-25.28
-29.22
-32.55
-34.65
-35.06
-33.48
-29.97
-24.90
-18.95
-12.90
-7.41
-2.86
0.77
3.67
6.09
8.17
9.85
11.02
11.62
11.74
11.61
11.55
11.74
12.25
12.94
13.61
14.10
14.31
14.29
14.12
13.81
13.31
12.44
10.99
8.89
6.17
3.04
-0.17
-3.14
-5.63
-7.63
-9.27
-10.87
-12.74
-15.16
-18.24
-21.80
-25.46
-28.65
-30.78
-31.36
-30.13
-27.13
-22.72
-17.46
-11.95
-6.78
-2.26
1.45
4.37
6.60
8.28
9.46
10.19
10.58
10.75
10.89
11.15
11.64
12.34
13.14
13.90
14.44
14.64
14.43
13.77
12.67
11.15
9.21
6.87
4.19
1.32
-1.55
-4.21
-6.55
-8.60
-10.58
-12.80
-15.60
-19.14
-23.36
-27.89
-32.12
-35.28
-36.68
-35.84
-32.75
-27.82
-21.78
-15.46
-9.55
-4.43
-0.18
3.34
6.25
8.66
10.56
11.93
12.82
13.41
13.89
14.47
15.25
16.19
17.11
17.81
18.09
17.88
17.23
16.32
15.40
14.63
14.03
13.39
12.44
10.88
8.60
5.71
2.45
-0.84
-3.90
-6.57
-8.83
-10.82
-12.73
-14.91
-17.66
-21.18
-25.35
-29.73
-33.57
-36.05
-36.53
-34.78
-31.05
-25.91
-20.06
-14.12
-8.46
-3.27
1.37
5.42
8.83
11.57
13.75
15.60
17.34
19.17
21.07
22.88
24.37
25.41
26.01
26.35
26.56
26.72
26.80
26.70
26.31
25.56
24.42
22.87
20.88
18.44
15.62
12.56
9.42
6.31
3.22
0.13
-3.05
-6.20
-9.16
-11.73
-13.83
-15.66
-17.64
-20.21
-23.71
-28.00
-32.53
-36.38
-38.59
-38.44
-35.66
-30.48
-23.59
-15.89
-8.30
-1.51
4.14
8.62
12.11
14.96
17.35
19.34
20.87
21.84
22.30
22.49
22.68
23.11
23.81
24.64
25.42
26.01
26.42
26.74
26.96
26.97
26.57
25.55
23.83
21.56
19.03
16.49
14.13
12.00
10.03
8.11
6.18
4.12
1.83
-0.74
-3.58
-6.59
-9.62
-12.59
-15.56
-18.71
-22.28
-26.37
-30.78
-34.96
-38.15
-39.57
-38.67
-35.33
-29.87
-23.02
-15.66
-8.64
-2.55
2.41
6.32
9.41
11.95
14.00
15.55
16.55
17.11
17.46
17.86
18.54
19.52
20.64
21.64
22.37
22.76
22.88
22.80
22.50
21.89
20.86
19.39
17.57
15.56
13.51
11.52
9.56
7.62
5.67
3.71
1.73
-0.35
-2.55
-4.96
-7.58
-10.44
-13.58
-17.11
-21.12
-25.55
-30.09
-34.11
-36.76
-37.30
-35.34
-30.99
-24.92
-18.04
-11.26
-5.19
-0.09
4.09
7.52
10.34
12.60
14.32
15.50
16.24
16.66
16.93
17.17
17.49
17.89
18.38
18.89
19.34
19.61
19.58
19.24
18.61
17.80
16.89
15.96
14.98
13.91
12.65
11.11
9.28
7.15
4.82
2.38
-0.07
-2.51
-4.94
-7.48
-10.26
-13.48
-17.32
-21.88
-27.13
-32.76
-38.14
-42.39
-44.57
-44.06
-40.79
-35.29
-28.49
-21.44
-14.89
-9.20
-4.32
-0.00
3.99
7.79
11.35
14.57
17.29
19.39
20.81
21.58
21.81
21.65
21.33
21.00
20.77
20.68
20.70
20.81
20.89
20.88
20.56
19.79
18.42
16.42
13.89
10.97
7.92
4.85
1.85
-1.14
-4.14
-7.16
-10.06
-12.66
-14.87
-16.78
-18.75
-21.22
-24.56
-28.76
-33.40
-37.64
-40.52
-41.31
-39.68
-35.81
-30.30
-23.89
-17.24
-10.80
-4.82
0.60
5.37
9.41
12.65
15.11
16.95
18.37
19.58
20.74
21.90
23.01
23.98
24.76
25.28
25.57
25.70
25.70
25.64
25.50
25.16
24.50
23.33
21.57
19.29
16.74
14.19
11.87
9.76
7.64
5.21
2.24
-1.20
-4.80
-8.04
-10.54
-12.23
-13.43
-14.73
-16.75
-19.95
-24.43
-29.84
-35.50
-40.48
-43.85
-44.90
-43.33
-39.29
-33.36
-26.35
-19.05
-12.07
-5.79
-0.38
4.14
7.83
10.80
13.17
15.12
16.81
18.33
19.69
20.86
21.81
22.55
23.16
23.71
24.22
24.66
24.93
24.91
24.55
23.82
22.74
21.33
19.60
17.58
15.34
12.96
10.54
8.14
5.72
3.21
0.50
-2.43
-5.53
-8.71
-11.88
-15.00
-18.14
-21.47
-25.17
-29.42
-34.21
-39.36
-44.30
-48.25
-50.35
-49.96
-47.00
-41.93
-35.71
-29.42
-23.88
-19.47
-16.21
-13.91
-12.44
-11.80
-12.02
-13.13
-15.03
-17.55
-20.54
-23.95
-27.81
-32.12
-36.79
-41.59
-46.18
-50.32
-54.05
-57.78
-62.18
-67.92
-75.31
-84.17
-93.86
-103.61
-112.90
-121.58
-129.81
-137.72
-145.07
-151.13
-154.67
-154.33
-148.98
-137.96
-121.29
-99.60
-74.09
-46.29
-17.91
9.57
35.15
58.41
79.49
98.77
116.54
132.63
146.47
157.26
164.37
167.64
167.63
165.40
162.22
159.14
156.60
154.31
151.33
146.54
139.27
129.86
119.79
111.19
106.04
105.15
107.65
111.32
113.44
112.06
106.81
98.89
90.38
83.23
78.44
75.90
74.75
73.88
72.43
69.91
66.01
60.52
53.17
43.67
31.90
18.00
2.29
-14.79
-32.72
-50.76
-67.69
-81.51
-89.56
-89.05
-78.28
-58.05
-32.33
-7.76
8.36
10.76
-1.51
-24.48
-50.65
-72.05
-83.32
-83.46
-75.28
-63.22
-50.66
-38.42
-25.25
-9.56
8.55
26.63
40.94
48.41
48.33
42.71
35.07
28.55
24.42
21.87
18.88
13.50
4.77
-7.08
-20.91
-35.26
-48.81
-60.54
-69.88
-76.59
-80.53
-81.48
-78.91
-72.31
-61.60
-47.78
-32.98
-20.03
-11.47
-8.39
-9.82
-12.82
-13.48
-8.46
3.55
21.25
41.00
58.20
68.98
71.62
66.91
57.57
46.88
37.34
30.11
24.95
20.94
17.00
12.34
6.60
-0.06
-6.93
-12.91
-16.94
-18.48
-18.04
-16.98
-17.03
-19.41
-24.23
-30.51
-36.70
-41.43
-43.91
-43.92
-41.49
-36.62
-29.30
-19.80
-8.88
2.18
11.91
19.13
23.14
23.85
21.58
16.96
10.85
4.43
-0.91
-3.88
-3.77
-0.91
3.31
6.81
7.49
4.06
-3.55
-14.10
-25.51
-35.46
-42.18
-44.86
-43.83
-40.24
-35.58
-31.08
-27.49
-25.02
-23.57
-22.97
-22.99
-23.20
-22.87
-20.87
-16.00
-7.33
5.42
21.68
40.22
59.21
76.48
89.69
96.60
95.57
86.08
69.24
47.74
25.31
5.78
-7.83
-13.88
-12.20
-3.78
9.62
25.76
42.10
56.01
65.18
68.10
64.57
55.84
44.24
32.46
22.81
16.53
13.55
12.57
11.46
7.93
0.29
-11.98
-27.84
-45.03
-60.62
-71.92
-77.23
-76.27
-70.21
-61.10
-51.14
-42.06
-34.66
-28.87
-24.17
-20.06
-16.48
-13.79
-12.39
-12.29
-12.88
-13.10
-12.01
-9.30
-5.51
-1.74
0.91
1.90
1.40
0.15
-0.99
-1.50
-1.43
-1.29
-1.80
-3.42
-6.17
-9.55
-12.70
-14.67
-14.69
-12.48
-8.25
-2.67
3.33
8.80
13.08
15.88
17.37
17.96
18.16
18.25
18.15
17.54
15.99
13.37
9.97
6.42
3.44
1.46
0.41
-0.24
-1.17
-2.85
-5.36
-8.45
-11.73
-14.90
-17.94
-20.92
-23.99
-27.27
-30.90
-35.03
-39.73
-44.89
-50.03
-54.29
-56.68
-56.31
-52.85
-46.55
-38.20
-28.80
-19.25
-10.19
-1.91
5.41
11.67
16.69
20.31
22.52
23.56
23.86
23.93
24.11
24.51
24.98
25.20
24.87
23.76
21.79
19.00
15.53
11.63
7.56
3.58
-0.15
-3.68
-7.27
-11.31
-16.12
-21.73
-27.79
-33.49
-37.81
-39.80
-38.83
-34.84
-28.33
-20.19
-11.44
-2.93
4.81
11.54
17.27
22.10
26.10
29.23
31.42
32.60
32.81
32.16
30.87
29.14
27.15
24.99
22.75
20.49
18.30
16.22
14.19
12.15
9.97
7.64
5.28
3.01
0.86
-1.34
-3.95
-7.41
-12.04
-17.92
-24.77
-31.95
-38.56
-43.53
-45.90
-45.00
-40.69
-33.47
-24.32
-14.48
-5.04
3.31
10.36
16.27
21.39
25.87
29.57
32.03
32.68
31.19
27.76
23.22
18.74
15.42
13.81
13.71
14.30
14.59
13.85
11.89
9.01
5.70
2.37
-0.81
-3.90
-7.02
-10.22
-13.49
-16.85
-20.37
-24.24
-28.65
-33.51
-38.31
-42.11
-43.82
-42.55
-37.99
-30.62
-21.54
-12.07
-3.33
4.11
10.18
15.12
19.13
22.22
24.26
25.11
24.82
23.73
22.32
21.06
20.20
19.71
19.31
18.66
17.49
15.70
13.37
10.70
7.85
4.90
1.82
-1.50
-5.18
-9.32
-13.96
-19.11
-24.66
-30.33
-35.55
-39.55
-41.44
-40.51
-36.50
-29.66
-20.73
-10.72
-0.66
8.63
16.63
23.01
27.64
30.43
31.34
30.49
28.18
24.99
21.63
18.73
16.66
15.37
14.48
13.52
12.17
10.36
8.30
6.18
4.10
1.88
-0.76
-4.18
-8.59
-14.09
-20.51
-27.44
-34.20
-39.86
-43.47
-44.27
-41.87
-36.42
-28.54
-19.13
-9.16
0.49
9.17
16.45
22.13
26.11
28.36
28.92
27.94
25.78
22.95
20.07
17.68
16.01
14.98
14.20
13.25
11.87
10.01
7.84
5.58
3.31
0.92
-1.91
-5.55
-10.35
-16.49
-23.84
-31.91
-39.79
-46.25
-50.01
-50.06
-46.03
-38.33
-28.02
-16.55
-5.26
4.93
13.61
20.75
26.52
30.95
33.97
35.48
35.49
34.24
32.21
29.95
27.97
26.54
25.66
25.03
24.28
23.00
21.00
18.25
14.93
11.30
7.51
3.61
-0.55
-5.21
-10.65
-17.04
-24.44
-32.64
-41.13
-49.04
-55.20
-58.42
-57.75
-52.89
-44.27
-32.96
-20.36
-7.77
3.92
14.23
23.01
30.18
35.66
39.39
41.40
41.92
41.34
40.08
38.51
36.79
35.00
33.17
31.43
29.96
28.89
28.19
27.49
26.29
24.06
20.54
15.80
10.26
4.42
-1.26
-6.58
-11.58
-16.46
-21.58
-27.38
-34.27
-42.38
-51.32
-59.93
-66.42
-68.91
-66.05
-57.69
-44.99
-30.02
-14.99
-1.56
9.60
18.68
26.21
32.71
38.31
42.80
45.89
47.45
47.67
47.00
46.01
45.18
44.75
44.69
44.74
44.59
44.07
43.13
41.84
40.29
38.48
36.29
33.53
30.08
25.96
21.32
16.38
11.31
6.13
0.79
-4.79
-10.63
-16.68
-22.88
-29.28
-36.11
-43.65
-52.04
-61.00
-69.62
-76.48
-79.94
-78.72
-72.33
-61.29
-46.95
-31.11
-15.46
-1.20
11.08
21.30
29.58
36.09
40.86
43.93
45.49
45.84
45.49
44.91
44.46
44.22
44.13
44.06
43.99
44.03
44.27
44.67
44.93
44.60
43.20
40.51
36.64
32.04
27.26
22.76
18.69
14.90
11.03
6.71
1.81
-3.58
-9.15
-14.55
-19.53
-24.04
-28.26
-32.57
-37.43
-43.26
-50.29
-58.32
-66.59
-73.76
-78.13
-78.16
-73.01
-62.89
-49.07
-33.50
-18.13
-4.37
7.23
16.84
24.92
31.82
37.57
41.94
44.73
45.96
45.95
45.22
44.24
43.28
42.39
41.52
40.64
39.81
39.17
38.76
38.43
37.86
36.72
34.77
31.98
28.49
24.58
20.44
16.20
11.82
7.25
2.43
-2.55
-7.52
-12.27
-16.68
-20.76
-24.76
-29.11
-34.33
-40.88
-48.75
-57.36
-65.49
-71.43
-73.52
-70.62
-62.66
-50.55
-36.06
-21.10
-7.19
4.83
14.83
23.02
29.65
34.77
38.36
40.37
40.97
40.54
39.55
38.42
37.37
36.45
35.60
34.76
33.93
33.11
32.22
31.14
29.76
27.99
25.82
23.32
20.52
17.40
13.91
9.97
5.62
0.99
-3.68
-8.15
-12.29
-16.13
-19.92
-24.03
-28.89
-34.83
-41.94
-49.95
-58.05
-65.04
-69.43
-69.91
-65.74
-57.05
-44.84
-30.75
-16.54
-3.59
7.32
16.03
22.73
27.69
31.06
32.85
33.16
32.27
30.71
29.12
28.02
27.60
27.69
27.91
27.92
27.53
26.81
25.98
25.20
24.48
23.64
22.39
20.43
17.53
13.64
8.90
3.64
-1.69
-6.66
-11.01
-14.77
-18.21
-21.78
-25.94
-31.07
-37.27
-44.28
-51.39
-57.45
-61.06
-60.96
-56.46
-47.78
-35.99
-22.75
-9.78
1.64
10.88
17.83
22.69
25.75
27.23
27.45
26.77
25.68
24.61
23.80
23.26
22.81
22.24
21.44
20.54
19.68
19.03
18.56
18.05
17.12
15.39
12.64
8.88
4.44
-0.25
-4.70
-8.61
-12.02
-15.22
-18.72
-22.96
-28.22
-34.42
-41.14
-47.51
-52.40
-54.61
-53.18
-47.79
-38.89
-27.68
-15.77
-4.69
4.51
11.42
16.15
19.02
20.38
20.46
19.43
17.54
15.19
12.86
10.95
9.68
9.07
8.98
9.19
9.52
9.77
9.75
9.26
8.07
6.09
3.39
0.20
-3.15
-6.41
-9.48
-12.44
-15.54
-19.11
-23.44
-28.72
-34.87
-41.46
-47.60
-52.10
-53.72
-51.54
-45.29
-35.54
-23.54
-10.89
0.98
11.05
18.86
24.41
27.98
29.86
30.30
29.50
27.66
25.09
22.22
19.50
17.35
16.00
15.43
15.38
15.44
15.16
14.16
12.26
9.44
5.84
1.69
-2.72
-7.11
-11.31
-15.25
-19.07
-23.07
-27.63
-33.09
-39.56
-46.64
-53.40
-58.42
-60.19
-57.64
-50.50
-39.58
-26.51
-13.17
-1.12
8.79
16.44
22.14
26.31
29.23
31.01
31.75
31.68
31.10
30.36
29.62
28.91
28.09
27.08
25.88
24.55
23.16
21.67
19.91
17.59
14.46
10.40
5.51
0.15
-5.28
-10.36
-14.94
-19.10
-23.27
-28.02
-33.88
-41.07
-49.24
-57.40
-64.11
-67.84
-67.36
-62.24
-52.91
-40.62
-27.03
-13.69
-1.72
8.46
16.91
24.00
30.02
35.11
39.15
41.98
43.56
44.05
43.77
43.04
42.12
41.09
39.92
38.58
37.04
35.39
33.71
32.05
30.37
28.52
26.27
23.40
19.79
15.47
10.68
5.79
1.12
-3.13
-7.01
-10.70
-14.50
-18.61
-23.22
-28.49
-34.52
-41.34
-48.67
-55.74
-61.45
-64.59
-64.29
-60.36
-53.38
-44.40
-34.51
-24.47
-14.58
-4.85
4.71
13.92
22.37
29.61
35.33
39.44
42.15
43.75
44.53
44.70
44.38
43.68
42.78
41.92
41.35
41.23
41.52
41.94
42.08
41.50
39.90
37.27
33.82
29.91
25.96
22.28
18.97
15.96
12.93
9.44
5.13
-0.21
-6.48
-13.22
-19.79
-25.58
-30.29
-34.06
-37.47
-41.31
-46.32
-52.85
-60.58
-68.56
-75.28
-79.04
-78.48
-72.98
-62.87
-49.45
-34.56
-20.01
-7.16
3.40
11.77
18.43
23.90
28.50
32.31
35.29
37.43
38.81
39.62
40.12
40.46
40.69
40.75
40.57
40.18
39.73
39.40
39.34
39.57
39.85
39.73
38.79
36.69
33.43
29.32
24.93
20.82
17.37
14.56
12.02
9.15
5.45
0.71
-4.82
-10.60
-16.05
-20.79
-24.78
-28.27
-31.70
-35.52
-40.11
-45.73
-52.43
-59.89
-67.29
-73.28
-76.35
-75.19
-69.30
-59.16
-46.11
-31.98
-18.39
-6.37
3.79
12.29
19.52
25.75
30.97
35.05
37.91
39.65
40.60
41.14
41.51
41.70
41.53
40.77
39.41
37.68
35.95
34.54
33.48
32.48
31.09
28.93
25.94
22.36
18.65
15.24
12.31
9.75
7.26
4.50
1.27
-2.45
-6.51
-10.63
-14.58
-18.16
-21.27
-23.97
-26.50
-29.26
-32.80
-37.56
-43.62
-50.45
-56.94
-61.48
-62.64
-59.53
-52.21
-41.69
-29.53
-17.32
-6.24
3.15
10.84
17.10
22.14
26.06
28.81
30.35
30.75
30.33
29.48
28.62
28.03
27.82
27.86
27.96
27.92
27.63
27.07
26.30
25.38
24.32
23.08
21.58
19.70
17.31
14.31
10.71
6.60
2.22
-2.15
-6.31
-10.14
-13.66
-17.09
-20.63
-24.56
-29.08
-34.31
-40.10
-46.02
-51.28
-54.80
-55.49
-52.62
-46.08
-36.55
-25.30
-13.79
-3.26
5.57
12.56
17.90
21.87
24.57
26.01
26.18
25.28
23.75
22.22
21.26
21.16
21.81
22.75
23.43
23.44
22.68
21.35
19.83
18.37
17.01
15.51
13.45
10.49
6.56
1.88
-3.09
-7.85
-12.04
-15.58
-18.62
-21.51
-24.63
-28.34
-32.88
-38.30
-44.33
-50.29
-55.16
-57.78
-57.13
-52.78
-45.01
-34.78
-23.46
-12.33
-2.38
5.92
12.47
17.36
20.71
22.61
23.22
22.81
21.81
20.72
19.97
19.79
20.12
20.67
21.09
21.08
20.62
19.81
18.81
17.69
16.30
14.33
11.49
7.68
3.08
-1.85
-6.62
-10.84
-14.38
-17.45
-20.46
-23.95
-28.37
-33.88
-40.22
-46.62
-51.94
-54.88
-54.43
-50.16
-42.43
-32.27
-21.07
-10.19
-0.58
7.28
13.34
17.79
20.87
22.81
23.80
24.05
23.86
23.48
23.15
22.91
22.66
22.15
21.20
19.78
18.10
16.54
15.43
14.82
14.39
13.52
11.60
8.30
3.79
-1.38
-6.47
-10.94
-14.57
-17.59
-20.46
-23.70
-27.77
-32.88
-38.91
-45.35
-51.28
-55.47
-56.70
-54.12
-47.65
-38.02
-26.56
-14.80
-3.95
5.28
12.74
18.65
23.28
26.78
29.22
30.57
30.94
30.58
29.89
29.25
28.94
28.94
29.08
29.05
28.59
27.62
26.30
24.84
23.40
22.01
20.51
18.63
16.09
12.72
8.53
3.73
-1.30
-6.16
-10.57
-14.48
-18.09
-21.75
-25.91
-30.88
-36.83
-43.67
-50.98
-58.05
-63.87
-67.28
-67.24
-63.17
-55.14
-44.02
-31.20
-18.17
-6.14
4.26
12.94
20.18
26.29
31.45
35.64
38.74
40.72
41.70
41.95
41.77
41.37
40.84
40.16
39.31
38.35
37.40
36.60
36.03
35.59
34.97
33.77
31.60
28.33
24.13
19.45
14.87
10.81
7.42
4.45
1.49
-1.89
-5.88
-10.34
-14.88
-19.10
-22.72
-25.75
-28.41
-31.10
-34.33
-38.51
-43.88
-50.31
-57.19
-63.42
-67.61
-68.46
-65.22
-57.94
-47.50
-35.32
-22.86
-11.25
-1.10
7.46
14.56
20.37
25.03
28.62
31.24
33.05
34.24
35.05
35.58
35.87
35.91
35.72
35.37
35.03
34.89
35.05
35.44
35.78
35.67
34.69
32.62
29.51
25.70
21.66
17.78
14.22
10.86
7.37
3.41
-1.13
-6.09
-11.08
-15.69
-19.66
-23.07
-26.37
-30.15
-34.99
-41.14
-48.38
-55.94
-62.58
-66.92
-67.79
-64.54
-57.36
-47.15
-35.36
-23.43
-12.46
-2.95
5.12
12.07
18.23
23.72
28.43
32.16
34.69
36.01
36.23
35.66
34.66
33.54
32.53
31.72
31.10
30.61
30.15
29.60
28.85
27.80
26.35
24.46
22.12
19.46
16.58
13.62
10.62
7.57
4.44
1.19
-2.23
-5.86
-9.75
-13.92
-18.43
-23.28
-28.52
-34.22
-40.45
-47.08
-53.70
-59.44
-63.16
-63.72
-60.40
-53.25
-43.13
-31.42
-19.63
-8.88
0.25
7.75
13.89
18.97
23.14
26.39
28.66
29.94
30.36
30.16
29.63
29.00
28.41
27.92
27.47
27.01
26.50
25.91
25.20
24.37
23.37
22.14
20.61
18.66
16.20
13.22
9.74
5.88
1.80
-2.35
-6.49
-10.56
-14.58
-18.59
-22.69
-27.02
-31.79
-37.22
-43.32
-49.82
-55.94
-60.54
-62.42
-60.65
-55.01
-46.01
-34.79
-22.77
-11.16
-0.77
8.11
15.49
21.51
26.28
29.84
32.18
33.39
33.65
33.24
32.47
31.58
30.73
29.96
29.23
28.59
28.09
27.78
27.70
27.68
27.48
26.76
25.24
22.81
19.60
15.95
12.26
8.80
5.62
2.55
-0.69
-4.26
-8.12
-12.02
-15.70
-19.02
-22.14
-25.40
-29.26
-34.05
-39.86
-46.43
-53.09
-58.81
-62.32
-62.47
-58.61
-50.88
-40.27
-28.30
-16.55
-6.15
2.47
9.43
15.19
20.14
24.45
28.15
31.19
33.57
35.39
36.72
37.56
37.90
37.76
37.20
36.39
35.47
34.61
33.86
33.18
32.44
31.43
29.94
27.80
24.95
21.58
17.97
14.47
11.30
8.46
5.69
2.68
-0.83
-4.86
-9.26
-13.74
-18.01
-21.91
-25.45
-28.84
-32.51
-36.85
-42.13
-48.28
-54.67
-60.24
-63.63
-63.65
-59.66
-51.88
-41.32
-29.45
-17.77
-7.37
1.28
8.27
14.01
18.87
23.04
26.48
29.01
30.57
31.24
31.29
31.03
30.71
30.44
30.22
29.99
29.77
29.63
29.71
30.05
30.50
30.79
30.51
29.39
27.38
24.71
21.75
18.85
16.12
13.41
10.39
6.76
2.43
-2.40
-7.30
-11.80
-15.60
-18.70
-21.40
-24.27
-27.87
-32.60
-38.52
-45.19
-51.73
-56.95
-59.64
-58.86
-54.32
-46.43
-36.23
-25.03
-14.08
-4.23
4.13
10.98
16.44
20.65
23.61
25.34
25.96
25.79
25.27
24.92
25.04
25.68
26.64
27.53
28.02
27.87
27.06
25.72
24.01
22.04
19.79
17.15
13.94
10.08
5.62
0.75
-4.19
-8.89
-13.14
-16.80
-19.93
-22.68
-25.30
-28.09
-31.32
-35.17
-39.60
-44.24
-48.41
-51.21
-51.76
-49.53
-44.41
-36.84
-27.64
-17.77
-8.10
0.69
8.22
14.29
18.85
21.91
23.59
24.13
23.88
23.26
22.68
22.43
22.58
23.04
23.58
24.00
24.17
24.06
23.68
23.00
21.98
20.53
18.58
16.04
12.87
9.00
4.48
-0.59
-5.95
-11.26
-16.13
-20.32
-23.78
-26.71
-29.55
-32.81
-36.89
-41.87
-47.37
-52.55
-56.27
-57.39
-55.16
-49.48
-41.00
-30.84
-20.36
-10.66
-2.35
4.46
10.04
14.73
18.82
22.38
25.40
27.74
29.39
30.40
30.93
31.20
31.38
31.57
31.76
31.88
31.76
31.27
30.32
28.87
26.96
24.69
22.14
19.39
16.47
13.32
9.85
6.00
1.74
-2.83
-7.54
-12.17
-16.51
-20.45
-24.02
-27.40
-30.91
-34.94
-39.80
-45.59
-51.97
-58.11
-62.77
-64.71
-63.00
-57.48
-48.80
-38.15
-26.90
-16.16
-6.54
1.80
8.98
15.14
20.32
24.49
27.66
29.93
31.49
32.56
33.29
33.73
33.85
33.69
33.27
32.76
32.34
32.14
32.15
32.18
31.90
30.91
28.95
26.00
22.35
18.53
15.08
12.39
10.51
9.13
7.77
5.88
3.13
-0.58
-5.03
-9.83
-14.52
-18.72
-22.27
-25.33
-28.35
-31.97
-36.76
-42.92
-50.09
-57.29
-63.09
-66.03
-65.08
-59.95
-51.24
-40.18
-28.28
-16.86
-6.67
2.07
9.56
16.15
22.00
27.06
31.14
34.09
35.90
36.82
37.22
37.39
37.50
37.53
37.31
36.76
35.94
35.02
34.23
33.69
33.30
32.80
31.83
30.09
27.52
24.39
21.12
18.19
15.89
14.10
12.43
10.31
7.32
3.38
-1.21
-5.95
-10.33
-14.11
-17.35
-20.38
-23.67
-27.64
-32.60
-38.69
-45.65
-52.87
-59.29
-63.60
-64.60
-61.60
-54.70
-44.83
-33.41
-21.82
-11.09
-1.61
6.71
14.14
20.84
26.70
31.42
34.75
36.67
37.42
37.44
37.12
36.71
36.21
35.53
34.64
33.64
32.73
32.10
31.77
31.55
31.11
30.06
28.26
25.73
22.72
19.63
16.78
14.35
12.29
10.36
8.19
5.50
2.21
-1.51
-5.29
-8.74
-11.70
-14.29
-16.86
-19.90
-23.81
-28.74
-34.56
-40.80
-46.64
-51.05
-52.99
-51.65
-46.81
-38.92
-29.04
-18.50
-8.48
0.21
7.29
12.85
17.13
20.35
22.63
24.08
24.84
25.10
25.12
25.06
25.03
25.00
24.88
24.60
24.13
23.44
22.60
21.64
20.63
19.57
18.42
17.09
15.46
13.43
10.96
8.13
5.12
2.17
-0.55
-3.01
-5.33
-7.70
-10.29
-13.27
-16.70
-20.68
-25.31
-30.71
-36.79
-43.20
-49.16
-53.60
-55.38
-53.70
-48.39
-39.95
-29.50
-18.35
-7.71
1.63
9.32
15.39
20.04
23.48
25.82
27.15
27.63
27.55
27.32
27.29
27.67
28.41
29.25
29.85
29.98
29.51
28.53
27.17
25.52
23.62
21.45
19.00
16.30
13.45
10.58
7.75
4.90
1.89
-1.44
-5.20
-9.30
-13.48
-17.39
-20.70
-23.31
-25.45
-27.58
-30.33
-34.19
-39.32
-45.35
-51.37
-56.16
-58.52
-57.63
-53.30
-45.95
-36.50
-26.07
-15.66
-6.05
2.33
9.34
15.00
19.43
22.76
25.10
26.62
27.52
28.03
28.43
28.93
29.57
30.26
30.78
30.96
30.79
30.42
30.06
29.84
29.66
29.21
28.11
26.08
23.10
19.44
15.56
11.91
8.77
6.15
3.84
1.48
-1.25
-4.54
-8.37
-12.53
-16.71
-20.61
-24.13
-27.36
-30.69
-34.62
-39.58
-45.65
-52.42
-58.95
-63.92
-66.07
-64.50
-59.05
-50.34
-39.55
-28.01
-16.85
-6.73
2.14
9.84
16.47
22.07
26.59
30.01
32.44
34.13
35.34
36.31
37.11
37.72
38.02
37.91
37.37
36.48
35.39
34.28
33.24
32.24
31.15
29.76
27.92
25.61
22.94
20.18
17.56
15.21
13.08
10.91
8.37
5.18
1.34
-2.91
-7.16
-11.00
-14.27
-17.05
-19.68
-22.50
-25.88
-30.05
-35.14
-41.05
-47.38
-53.39
-57.99
-60.06
-58.76
-53.89
-45.95
-35.99
-25.28
-14.91
-5.64
2.26
8.81
14.22
18.69
22.29
25.00
26.76
27.56
27.55
27.03
26.33
25.73
25.38
25.27
25.34
25.48
25.65
25.75
25.72
25.41
24.71
23.54
21.89
19.86
17.59
15.20
12.70
9.99
6.94
3.44
-0.45
-4.59
-8.71
-12.63
-16.24
-19.62
-22.98
-26.65
-30.93
-35.97
-41.66
-47.46
-52.51
-55.71
-56.09
-53.11
-46.80
-37.82
-27.23
-16.25
-5.98
2.84
9.82
14.98
18.60
21.03
22.55
23.33
23.46
23.04
22.29
21.55
21.18
21.35
22.05
22.97
23.75
24.02
23.61
22.54
20.94
18.94
16.65
14.07
11.19
7.97
4.41
0.58
-3.42
-7.44
-11.33
-14.92
-18.07
-20.76
-23.13
-25.49
-28.30
-32.03
-36.93
-42.88
-49.23
-54.93
-58.73
-59.56
-56.87
-50.80
-42.08
-31.84
-21.20
-11.02
-1.85
6.08
12.72
18.13
22.34
25.48
27.74
29.37
30.63
31.69
32.59
33.24
33.54
33.41
32.93
32.29
31.69
31.25
30.90
30.38
29.36
27.64
25.20
22.27
19.14
16.06
13.06
10.07
6.86
3.31
-0.64
-4.86
-9.16
-13.34
-17.27
-20.84
-24.14
-27.33
-30.74
-34.76
-39.72
-45.71
-52.36
-58.85
-63.94
-66.33
-65.03
-59.72
-50.94
-39.86
-27.99
-16.73
-6.96
1.07
7.60
13.05
17.76
21.82
25.17
27.77
29.73
31.27
32.62
33.82
34.71
35.03
34.61
33.58
32.31
31.23
30.63
30.46
30.38
29.95
28.74
26.59
23.55
19.91
16.04
12.33
8.95
5.94
3.08
0.09
-3.29
-7.15
-11.33
-15.52
-19.42
-22.87
-25.93
-28.88
-32.12
-36.04
-40.90
-46.58
-52.51
-57.63
-60.66
-60.45
-56.42
-48.87
-38.82
-27.69
-16.79
-6.99
1.36
8.32
14.08
18.83
22.68
25.73
28.06
29.81
31.15
32.17
32.93
33.44
33.63
33.46
32.93
32.14
31.29
30.59
30.18
29.95
29.62
28.77
27.07
24.42
21.01
17.25
13.62
10.45
7.84
5.59
3.42
1.00
-1.75
-4.80
-7.91
-10.86
-13.56
-16.13
-18.84
-22.06
-26.14
-31.32
-37.62
-44.65
-51.55
-57.07
-59.82
-58.75
-53.55
-44.82
-33.88
-22.35
-11.52
-2.14
5.67
12.19
17.74
22.52
26.54
29.67
31.81
32.97
33.30
33.02
32.42
31.73
31.15
30.71
30.40
30.12
29.81
29.42
28.91
28.22
27.22
25.78
23.84
21.44
18.77
16.04
13.41
10.85
8.21
5.25
1.89
-1.79
-5.54
-9.06
-12.25
-15.22
-18.30
-21.94
-26.45
-31.84
-37.69
-43.20
-47.36
-49.19
-48.01
-43.69
-36.66
-27.87
-18.40
-9.27
-1.14
5.73
11.39
15.93
19.38
21.64
22.61
22.35
21.18
19.70
18.54
18.19
18.70
19.76
20.83
21.41
21.30
20.61
19.68
18.79
17.94
16.92
15.41
13.20
10.26
6.84
3.27
-0.20
-3.41
-6.39
-9.22
-12.01
-15.00
-18.44
-22.65
-27.77
-33.68
-39.82
-45.28
-48.99
-50.05
-48.02
-43.04
-35.79
-27.28
-18.50
-10.24
-2.94
3.26
8.31
12.20
14.84
16.22
16.45
15.89
15.06
14.46
14.41
14.89
15.64
16.29
16.56
16.39
15.91
15.29
14.57
13.63
12.19
10.03
7.08
3.48
-0.43
-4.32
-7.96
-11.23
-14.20
-17.03
-19.92
-23.12
-26.90
-31.42
-36.62
-42.05
-46.84
-49.92
-50.32
-47.51
-41.65
-33.49
-24.12
-14.56
-5.54
2.62
9.82
16.03
21.16
25.05
27.55
28.71
28.76
28.11
27.21
26.38
25.78
25.40
25.10
24.70
24.15
23.49
22.83
22.31
21.87
21.30
20.29
18.55
15.93
12.52
8.60
4.49
0.44
-3.41
-7.10
-10.74
-14.43
-18.28
-22.39
-26.85
-31.73
-36.93
-42.13
-46.75
-50.05
-51.34
-50.15
-46.40
-40.44
-32.91
-24.56
-16.07
-7.95
-0.43
6.41
12.65
18.36
23.54
28.07
31.75
34.40
35.94
36.51
36.33
35.70
34.89
34.08
33.36
32.70
32.02
31.15
29.94
28.23
25.96
23.18
20.02
16.63
13.13
9.57
5.95
2.25
-1.51
-5.29
-9.03
-12.62
-15.95
-18.93
-21.63
-24.25
-27.14
-30.76
-35.47
-41.33
-47.92
-54.29
-59.18
-61.31
-59.86
-54.68
-46.41
-36.16
-25.20
-14.53
-4.73
4.07
11.93
18.87
24.81
29.59
33.08
35.39
36.80
37.66
38.28
38.77
39.03
38.91
38.30
37.24
35.92
34.63
33.55
32.71
32.00
31.15
29.84
27.88
25.21
21.98
18.48
15.03
11.81
8.80
5.79
2.50
-1.24
-5.41
-9.73
-13.81
-17.35
-20.26
-22.75
-25.28
-28.34
-32.36
-37.50
-43.52
-49.81
-55.39
-59.15
-60.14
-57.83
-52.30
-44.24
-34.70
-24.80
-15.44
-7.08
0.22
6.65
12.45
17.75
22.52
26.62
29.86
32.14
33.51
34.14
34.28
34.17
34.01
33.94
34.07
34.40
34.86
35.22
35.22
34.56
33.10
30.85
28.00
24.85
21.70
18.75
16.01
13.32
10.40
7.04
3.11
-1.26
-5.81
-10.22
-14.25
-17.84
-21.20
-24.70
-28.76
-33.67
-39.42
-45.55
-51.21
-55.22
-56.44
-54.11
-48.21
-39.43
-29.08
-18.57
-9.03
-1.02
5.47
10.80
15.29
19.04
21.92
23.73
24.42
24.23
23.65
23.20
23.26
23.89
24.83
25.70
26.14
26.00
25.36
24.41
23.30
22.11
20.71
18.95
16.65
13.74
10.28
6.45
2.42
-1.68
-5.73
-9.69
-13.52
-17.20
-20.78
-24.39
-28.29
-32.74
-37.87
-43.45
-48.84
-53.00
-54.87
-53.61
-48.93
-41.24
-31.50
-20.89
-10.53
-1.18
6.84
13.57
19.13
23.64
27.13
29.63
31.20
32.04
32.46
32.69
32.89
33.01
32.91
32.50
31.81
31.02
30.26
29.57
28.81
27.72
26.02
23.63
20.69
17.50
14.40
11.56
8.98
6.48
3.77
0.70
-2.80
-6.62
-10.55
-14.37
-17.91
-21.11
-24.15
-27.38
-31.29
-36.27
-42.39
-49.16
-55.50
-60.00
-61.36
-58.86
-52.60
-43.49
-32.92
-22.18
-12.20
-3.31
4.53
11.47
17.59
22.76
26.80
29.62
31.35
32.31
32.91
33.45
34.07
34.72
35.23
35.49
35.46
35.18
34.76
34.24
33.54
32.48
30.86
28.53
25.57
22.21
18.82
15.68
12.88
10.24
7.45
4.22
0.41
-3.89
-8.39
-12.76
-16.73
-20.22
-23.31
-26.25
-29.35
-32.92
-37.20
-42.14
-47.33
-51.93
-54.83
-54.97
-51.76
-45.24
-36.19
-25.82
-15.36
-5.79
2.40
9.17
14.68
19.18
22.87
25.83
28.10
29.70
30.65
31.03
31.01
30.74
30.39
30.08
29.83
29.59
29.33
28.99
28.52
27.83
26.78
25.21
22.99
20.15
16.84
13.38
10.06
7.11
4.57
2.28
-0.02
-2.57
-5.47
-8.62
-11.83
-14.95
-17.96
-21.04
-24.46
-28.52
-33.33
-38.69
-44.04
-48.56
-51.34
-51.57
-48.82
-43.15
-35.13
-25.73
-16.06
-7.01
0.83
7.31
12.53
16.69
19.96
22.41
24.08
25.10
25.62
25.87
26.01
26.08
26.04
25.83
25.49
25.13
24.88
24.76
24.63
24.17
23.04
21.07
18.30
15.00
11.53
8.17
5.03
2.03
-0.95
-4.00
-7.12
-10.24
-13.30
-16.26
-19.21
-22.35
-25.94
-30.23
-35.34
-41.12
-47.03
-52.19
-55.59
-56.32
-53.87
-48.33
-40.31
-30.74
-20.68
-11.03
-2.40
4.88
10.80
15.51
19.24
22.22
24.56
26.30
27.46
28.09
28.38
28.55
28.82
29.24
29.73
30.11
30.17
29.76
28.86
27.49
25.70
23.53
21.00
18.21
15.24
12.17
9.08
5.98
2.82
-0.48
-3.91
-7.49
-11.14
-14.79
-18.41
-21.97
-25.56
-29.34
-33.51
-38.21
-43.40
-48.69
-53.33
-56.31
-56.62
-53.63
-47.37
-38.62
-28.65
-18.83
-10.14
-2.99
2.79
7.68
12.11
16.25
19.96
22.96
25.05
26.26
26.85
27.20
27.62
28.22
28.90
29.40
29.44
28.85
27.60
25.87
23.88
21.83
19.84
17.85
15.74
13.36
10.66
7.64
4.42
1.06
-2.36
-5.83
-9.32
-12.74
-15.95
-18.88
-21.62
-24.51
-28.03
-32.56
-38.11
-44.11
-49.46
-52.89
-53.30
-50.21
-43.91
-35.33
-25.70
-16.17
-7.52
-0.06
6.24
11.56
16.06
19.79
22.74
24.90
26.34
27.23
27.80
28.27
28.78
29.35
29.89
30.28
30.37
30.01
29.17
27.87
26.18
24.21
22.04
19.69
17.16
14.44
11.59
8.72
5.96
3.34
0.80
-1.79
-4.56
-7.54
-10.64
-13.78
-16.93
-20.27
-24.08
-28.58
-33.73
-39.06
-43.71
-46.70
-47.22
-44.88
-39.86
-32.82
-24.66
-16.31
-8.42
-1.37
4.76
10.00
14.36
17.83
20.34
21.94
22.83
23.29
23.60
23.94
24.29
24.54
24.53
24.21
23.67
23.01
22.34
21.61
20.73
19.54
17.97
15.96
13.58
10.84
7.77
4.38
0.76
-2.92
-6.49
-9.80
-12.83
-15.69
-18.69
-22.16
-26.37
-31.38
-36.88
-42.27
-46.62
-48.98
-48.55
-45.03
-38.70
-30.40
-21.25
-12.30
-4.27
2.61
8.41
13.34
17.46
20.65
22.65
23.35
22.91
21.80
20.62
19.85
19.65
19.86
20.10
20.08
19.68
19.05
18.37
17.71
16.94
15.72
13.69
10.67
6.72
2.16
-2.52
-6.88
-10.56
-13.45
-15.72
-17.68
-19.84
-22.67
-26.57
-31.64
-37.59
-43.69
-48.84
-51.90
-51.91
-48.52
-42.05
-33.39
-23.74
-14.20
-5.54
1.92
8.20
13.49
18.00
21.79
24.86
27.13
28.54
29.12
28.98
28.39
27.63
26.99
26.56
26.37
26.22
25.92
25.32
24.33
22.96
21.26
19.25
16.90
14.18
11.02
7.41
3.41
-0.82
-5.07
-9.11
-12.76
-16.00
-18.95
-21.94
-25.42
-29.79
-35.25
-41.59
-48.14
-53.87
-57.60
-58.34
-55.58
-49.48
-40.81
-30.75
-20.48
-10.93
-2.55
4.64
10.84
16.31
21.15
25.39
28.91
31.69
33.76
35.25
36.32
37.09
37.60
37.84
37.80
37.50
37.01
36.48
36.01
35.53
34.83
33.50
31.24
27.95
23.87
19.55
15.63
12.55
10.35
8.67
6.91
4.56
1.41
-2.43
-6.59
-10.70
-14.53
-18.04
-21.39
-24.81
-28.64
-33.17
-38.62
-44.93
-51.64
-57.79
-62.14
-63.46
-61.04
-54.94
-46.02
-35.65
-25.20
-15.64
-7.30
-0.08
6.39
12.34
17.80
22.53
26.33
29.09
30.94
32.16
33.05
33.79
34.42
34.89
35.17
35.35
35.53
35.85
36.29
36.67
36.65
35.93
34.32
31.84
28.72
25.29
21.89
18.77
15.98
13.45
10.94
8.20
5.04
1.40
-2.58
-6.62
-10.39
-13.67
-16.42
-18.89
-21.54
-24.85
-29.21
-34.74
-41.14
-47.76
-53.63
-57.57
-58.61
-56.16
-50.26
-41.63
-31.43
-20.93
-11.17
-2.68
4.50
10.60
15.85
20.35
23.97
26.52
27.94
28.32
27.97
27.28
26.58
26.09
25.90
26.00
26.40
27.02
27.76
28.39
28.61
28.13
26.82
24.75
22.22
19.62
17.27
15.24
13.38
11.32
8.77
5.62
2.00
-1.75
-5.29
-8.45
-11.30
-14.08
-17.13
-20.75
-25.10
-30.22
-35.83
-41.39
-46.05
-48.83
-48.91
-45.90
-40.03
-32.12
-23.26
-14.54
-6.69
0.04
5.75
10.72
15.15
19.03
22.20
24.44
25.69
26.08
25.94
25.65
25.47
25.47
25.55
25.51
25.23
24.69
24.01
23.24
22.34
21.17
19.53
17.29
14.44
11.11
7.50
3.82
0.23
-3.14
-6.21
-8.96
-11.44
-13.80
-16.25
-19.10
-22.64
-27.06
-32.41
-38.45
-44.61
-50.02
-53.64
-54.54
-52.20
-46.71
-38.76
-29.44
-19.92
-11.10
-3.44
3.03
8.52
13.31
17.49
21.04
23.83
25.81
27.05
27.77
28.20
28.48
28.68
28.72
28.54
28.11
27.52
26.89
26.31
25.72
24.96
23.81
22.14
19.95
17.38
14.64
11.90
9.18
6.36
3.21
-0.37
-4.33
-8.45
-12.45
-16.12
-19.48
-22.75
-26.22
-30.26
-35.00
-40.37
-45.94
-50.91
-54.28
-55.07
-52.71
-47.18
-39.14
-29.68
-20.02
-11.05
-3.19
3.59
9.56
14.90
19.67
23.70
26.81
28.96
30.26
30.97
31.34
31.52
31.55
31.38
31.02
30.51
29.96
29.40
28.77
27.88
26.52
24.57
22.05
19.19
16.28
13.58
11.25
9.28
7.52
5.70
3.55
0.91
-2.25
-5.75
-9.28
-12.58
-15.54
-18.28
-21.14
-24.47
-28.58
-33.58
-39.33
-45.41
-51.13
-55.54
-57.67
-56.80
-52.69
-45.72
-36.79
-27.06
-17.51
-8.76
-1.03
5.70
11.48
16.26
19.93
22.47
23.99
24.79
25.19
25.46
25.73
25.98
26.22
26.40
26.57
26.75
26.93
26.99
26.80
26.19
25.07
23.45
21.40
19.12
16.80
14.59
12.55
10.59
8.52
6.13
3.28
-0.02
-3.60
-7.20
-10.55
-13.54
-16.21
-18.83
-21.82
-25.58
-30.36
-36.03
-41.97
-47.21
-50.55
-51.04
-48.29
-42.58
-34.83
-26.19
-17.66
-9.89
-3.08
2.78
7.76
11.89
15.17
17.63
19.39
20.64
21.54
22.19
22.67
22.97
23.12
23.20
23.24
23.23
23.12
22.83
22.27
21.42
20.27
18.79
16.99
14.86
12.42
9.76
6.97
4.15
1.36
-1.39
-4.12
-6.84
-9.58
-12.32
-15.18
-18.32
-22.03
-26.50
-31.74
-37.39
-42.77
-46.92
-48.94
-48.19
-44.52
-38.35
-30.48
-21.95
-13.65
-6.24
0.04
5.21
9.39
12.67
15.05
16.52
17.18
17.33
17.40
17.79
18.71
20.03
21.39
22.33
22.51
21.87
20.59
19.01
17.40
15.87
14.29
12.41
9.99
6.89
3.22
-0.78
-4.78
-8.47
-11.64
-14.33
-16.73
-19.22
-22.26
-26.24
-31.33
-37.34
-43.67
-49.34
-53.22
-54.33
-52.09
-46.60
-38.55
-29.07
-19.39
-10.50
-2.91
3.36
8.57
13.06
16.93
20.15
22.54
24.05
24.86
25.30
25.72
26.32
27.04
27.62
27.80
27.44
26.68
25.71
24.76
23.90
22.98
21.68
19.67
16.73
12.86
8.31
3.47
-1.22
-5.45
-9.13
-12.42
-15.61
-18.98
-22.76
-27.05
-31.87
-37.13
-42.60
-47.79
-51.97
-54.29
-53.99
-50.69
-44.52
-36.16
-26.68
-17.11
-8.31
-0.67
5.76
11.21
15.95
20.10
23.63
26.40
28.30
29.31
29.66
29.72
29.91
30.44
31.26
32.08
32.51
32.25
31.28
29.79
28.11
26.51
25.02
23.43
21.41
18.70
15.25
11.25
6.97
2.69
-1.49
-5.61
-9.76
-14.06
-18.53
-23.26
-28.30
-33.72
-39.46
-45.18
-50.12
-53.34
-53.92
-51.37
-45.80
-37.89
-28.66
-19.13
-10.01
-1.63
5.92
12.70
18.67
23.69
27.55
30.13
31.47
31.80
31.48
30.86
30.20
29.61
29.06
28.46
27.73
26.87
25.89
24.84
23.74
22.55
21.22
19.64
17.69
15.31
12.48
9.32
6.04
2.86
-0.09
-2.84
-5.61
-8.72
-12.48
-17.12
-22.67
-28.95
-35.56
-41.92
-47.19
-50.51
-51.10
-48.52
-42.87
-34.84
-25.44
-15.80
-6.81
1.03
7.54
12.75
16.71
19.50
21.17
21.92
22.09
22.07
22.27
22.88
23.91
25.09
26.06
26.48
26.19
25.31
24.08
22.78
21.57
20.38
18.96
16.99
14.34
11.05
7.39
3.69
0.22
-2.95
-5.84
-8.63
-11.51
-14.66
-18.27
-22.51
-27.44
-32.96
-38.55
-43.37
-46.36
-46.55
-43.42
-37.14
-28.47
-18.59
-8.66
0.49
8.43
15.12
20.66
25.19
28.73
31.31
33.00
33.91
34.25
34.17
33.80
33.24
32.56
31.84
31.20
30.70
30.27
29.79
29.04
27.80
26.00
23.63
20.89
18.00
15.13
12.34
9.58
6.68
3.50
0.02
-3.66
-7.34
-10.83
-14.04
-17.02
-19.93
-23.05
-26.69
-31.05
-36.19
-41.80
-47.23
-51.54
-53.71
-53.01
-49.19
-42.59
-33.99
-24.36
-14.60
-5.38
2.90
10.06
16.08
21.04
25.10
28.39
30.98
32.91
34.19
34.88
35.09
34.97
34.64
34.11
33.36
32.42
31.41
30.58
30.14
30.08
30.17
29.98
29.13
27.43
24.96
22.02
18.96
16.01
13.26
10.60
7.82
4.74
1.21
-2.71
-6.83
-10.83
-14.37
-17.25
-19.55
-21.62
-23.99
-27.20
-31.57
-37.07
-43.22
-49.21
-54.02
-56.65
-56.39
-52.97
-46.66
-38.19
-28.57
-18.84
-9.78
-1.85
4.87
10.51
15.27
19.30
22.68
25.44
27.53
28.96
29.82
30.25
30.52
30.82
31.36
32.13
32.99
33.65
33.80
33.24
31.94
30.03
27.68
25.07
22.34
19.56
16.77
13.98
11.15
8.18
4.92
1.30
-2.66
-6.76
-10.70
-14.21
-17.09
-19.39
-21.43
-23.66
-26.57
-30.42
-35.06
-39.86
-43.86
-45.97
-45.39
-41.88
-35.80
-28.01
-19.55
-11.35
-3.99
2.28
7.48
11.70
15.02
17.48
19.06
19.74
19.63
18.95
18.04
17.27
16.88
16.97
17.40
17.90
18.17
18.00
17.32
16.29
15.09
13.90
12.74
11.47
9.83
7.62
4.81
1.56
-1.77
-4.83
-7.39
-9.49
-11.42
-13.62
-16.53
-20.38
-25.20
-30.63
-36.05
-40.63
-43.51
-44.04
-41.94
-37.44
-31.12
-23.82
-16.32
-9.21
-2.78
2.92
7.93
12.31
16.01
18.95
21.01
22.16
22.50
22.24
21.72
21.21
20.91
20.82
20.85
20.84
20.65
20.21
19.51
18.57
17.37
15.91
14.20
12.25
10.07
7.65
5.00
2.11
-0.98
-4.15
-7.31
-10.38
-13.35
-16.35
-19.61
-23.37
-27.84
-33.04
-38.66
-44.08
-48.39
-50.67
-50.20
-46.79
-40.82
-33.12
-24.70
-16.45
-8.84
-2.05
3.98
9.32
13.90
17.56
20.17
21.75
22.51
22.81
22.94
23.06
23.16
23.11
22.71
21.91
20.75
19.34
17.83
16.23
14.46
12.31
9.59
6.20
2.28
-1.84
-5.72
-8.95
-11.41
-13.27
-15.06
-17.41
-20.83
-25.40
-30.69
-35.79
-39.57
-41.08
-39.82
-35.90
-29.94
-22.81
-15.37
-8.26
-1.83
3.79
8.57
12.57
15.82
18.34
20.16
21.32
21.89
21.96
21.66
21.15
20.56
20.00
19.52
19.11
18.78
18.51
18.27
17.93
17.29
16.06
13.95
10.81
6.72
2.01
-2.86
-7.42
-11.39
-14.75
-17.79
-20.97
-24.75
-29.31
-34.45
-39.54
-43.62
-45.70
-45.02
-41.43
-35.34
-27.67
-19.54
-11.88
-5.26
0.22
4.77
8.73
12.38
15.83
18.97
21.59
23.56
24.80
25.43
25.67
25.73
25.70
25.55
25.17
24.46
23.42
22.15
20.79
19.47
18.13
16.63
14.71
12.23
9.13
5.57
1.77
-2.03
-5.64
-9.05
-12.32
-15.56
-18.88
-22.33
-26.00
-30.04
-34.58
-39.66
-44.99
-49.87
-53.31
-54.26
-52.07
-46.67
-38.70
-29.27
-19.56
-10.57
-2.73
3.87
9.38
13.99
17.76
20.70
22.81
24.21
25.05
25.53
25.84
26.05
26.20
26.32
26.42
26.53
26.60
26.58
26.36
25.83
24.92
23.60
21.88
19.79
17.42
14.91
12.33
9.77
7.17
4.42
1.38
-2.02
-5.72
-9.52
-13.13
-16.31
-18.97
-21.28
-23.60
-26.39
-30.02
-34.52
-39.49
-44.07
-47.18
-47.88
-45.66
-40.65
-33.58
-25.48
-17.38
-9.97
-3.50
2.09
7.02
11.41
15.23
18.32
20.55
21.90
22.52
22.68
22.67
22.64
22.63
22.54
22.24
21.67
20.83
19.78
18.61
17.42
16.29
15.25
14.26
13.20
11.86
10.02
7.59
4.68
1.56
-1.45
-4.08
-6.29
-8.26
-10.36
-12.92
-16.22
-20.32
-25.10
-30.21
-35.06
-38.87
-40.77
-40.05
-36.45
-30.30
-22.47
-14.10
-6.25
0.43
5.77
9.99
13.40
16.25
18.53
20.16
21.04
21.25
21.02
20.65
20.47
20.62
21.09
21.69
22.16
22.26
21.84
20.92
19.57
17.97
16.25
14.46
12.54
10.39
7.88
4.97
1.73
-1.67
-5.01
-8.09
-10.77
-13.09
-15.22
-17.43
-20.05
-23.37
-27.57
-32.63
-38.26
-43.85
-48.48
-51.13
-50.96
-47.64
-41.44
-33.23
-24.14
-15.27
-7.32
-0.53
5.22
10.19
14.52
18.21
21.09
23.10
24.31
24.98
25.42
25.82
26.24
26.55
26.63
26.43
26.04
25.54
24.96
24.18
23.02
21.41
19.38
17.12
14.80
12.52
10.23
7.80
5.09
2.07
-1.17
-4.49
-7.70
-10.71
-13.45
-15.95
-18.36
-20.89
-23.88
-27.62
-32.22
-37.41
-42.49
-46.40
-48.05
-46.67
-42.15
-35.07
-26.50
-17.61
-9.29
-1.99
4.25
9.58
14.14
18.01
21.17
23.60
25.32
26.41
27.03
27.38
27.66
28.01
28.44
28.84
29.01
28.81
28.19
27.28
26.24
25.18
24.05
22.65
20.83
18.52
15.84
12.98
10.09
7.20
4.20
0.93
-2.69
-6.58
-10.46
-14.08
-17.21
-19.82
-22.14
-24.54
-27.47
-31.24
-35.87
-40.87
-45.36
-48.26
-48.58
-45.87
-40.32
-32.75
-24.29
-16.00
-8.50
-1.96
3.80
9.05
13.90
18.23
21.78
24.28
25.69
26.21
26.21
26.11
26.16
26.37
26.61
26.59
26.11
25.12
23.70
22.02
20.30
18.66
17.14
15.67
14.07
12.17
9.84
7.12
4.13
1.08
-1.92
-4.81
-7.58
-10.32
-13.10
-15.97
-19.02
-22.40
-26.21
-30.47
-34.96
-39.17
-42.31
-43.52
-42.15
-38.01
-31.44
-23.30
-14.67
-6.49
0.62
6.51
11.30
15.21
18.38
20.77
22.29
22.91
22.75
22.10
21.29
20.62
20.21
20.02
19.89
19.63
19.17
18.45
17.54
16.48
15.30
13.98
12.48
10.76
8.77
6.45
3.72
0.56
-2.92
-6.48
-9.83
-12.75
-15.18
-17.28
-19.39
-21.92
-25.26
-29.56
-34.68
-40.10
-44.98
-48.26
-49.02
-46.71
-41.44
-33.90
-25.16
-16.31
-8.11
-0.86
5.51
11.22
16.41
21.00
24.83
27.75
29.74
30.93
31.49
31.61
31.42
31.01
30.54
30.16
29.99
30.04
30.11
29.91
29.17
27.74
25.68
23.15
20.39
17.54
14.71
11.97
9.34
6.81
4.30
1.66
-1.22
-4.35
-7.63
-10.85
-13.83
-16.53
-19.09
-21.87
-25.29
-29.62
-34.87
-40.65
-46.10
-50.14
-51.70
-50.11
-45.37
-38.10
-29.36
-20.29
-11.79
-4.28
2.13
7.55
12.12
15.89
18.89
21.18
22.84
24.00
24.82
25.41
25.91
26.44
27.05
27.72
28.38
28.95
29.36
29.64
29.80
29.82
29.63
29.04
27.85
25.96
23.45
20.54
17.57
14.84
12.55
10.69
9.16
7.71
6.09
4.09
1.60
-1.32
-4.47
-7.66
-10.63
-13.26
-15.61
-17.91
-20.57
-24.03
-28.55
-34.06
-40.08
-45.66
-49.71
-51.21
-49.54
-44.78
-37.61
-29.14
-20.52
-12.67
-6.00
-0.56
3.90
7.68
10.93
13.71
15.99
17.81
19.32
20.70
22.07
23.40
24.53
25.24
25.46
25.28
24.92
24.60
24.41
24.20
23.69
22.68
21.09
19.09
16.97
14.97
13.22
11.69
10.24
8.72
6.98
4.91
2.50
-0.24
-3.26
-6.48
-9.85
-13.37
-17.15
-21.37
-26.13
-31.34
-36.65
-41.39
-44.74
-45.95
-44.58
-40.62
-34.52
-27.08
-19.18
-11.64
-4.95
0.69
5.35
9.19
12.33
14.81
16.54
17.47
17.68
17.43
17.10
17.00
17.26
17.78
18.34
18.70
18.78
18.66
18.43
18.10
17.48
16.31
14.31
11.39
7.74
3.71
-0.25
-3.79
-6.76
-9.24
-11.48
-13.86
-16.75
-20.43
-25.00
-30.30
-35.88
-41.05
-45.00
-46.95
-46.36
-43.08
-37.41
-30.02
-21.81
-13.65
-6.25
0.01
5.05
9.06
12.23
14.78
16.79
18.31
19.35
19.98
20.33
20.54
20.68
20.75
20.72
20.52
20.17
19.69
19.11
18.39
17.41
16.05
14.17
11.69
8.61
5.04
1.13
-2.89
-6.79
-10.38
-13.62
-16.67
-19.88
-23.68
-28.30
-33.69
-39.29
-44.23
-47.45
-48.10
-45.84
-40.87
-33.93
-25.93
-17.73
-9.95
-2.91
3.34
8.83
13.63
17.82
21.37
24.25
26.45
27.96
28.86
29.23
29.23
28.92
28.33
27.37
26.03
24.39
22.70
21.21
20.08
19.19
18.21
16.66
14.25
10.94
7.04
3.04
-0.63
-3.78
-6.46
-8.91
-11.45
-14.39
-18.01
-22.51
-27.87
-33.70
-39.14
-43.05
-44.37
-42.55
-37.75
-30.87
-23.06
-15.30
-8.15
-1.72
4.14
9.51
14.32
18.36
21.45
23.55
24.86
25.63
26.12
26.47
26.68
26.62
26.13
25.13
23.65
21.89
20.09
18.46
16.98
15.45
13.53
10.95
7.68
3.97
0.19
-3.27
-6.30
-8.99
-11.66
-14.61
-18.10
-22.18
-26.72
-31.38
-35.62
-38.72
-39.95
-38.78
-35.07
-29.19
-21.94
-14.30
-7.10
-0.78
4.59
9.21
13.26
16.80
19.73
21.90
23.26
23.91
24.12
24.21
24.40
24.73
25.13
25.40
25.34
24.87
23.96
22.75
21.36
19.89
18.28
16.39
14.02
11.03
7.48
3.60
-0.27
-3.82
-6.88
-9.47
-11.84
-14.35
-17.35
-21.08
-25.63
-30.83
-36.20
-41.03
-44.41
-45.52
-43.82
-39.33
-32.58
-24.50
-16.13
-8.19
-1.05
5.36
11.19
16.60
21.52
25.76
29.18
31.74
33.56
34.84
35.73
36.27
36.42
36.15
35.56
34.85
34.24
33.83
33.55
33.15
32.29
30.77
28.53
25.73
22.71
19.78
17.14
14.85
12.79
10.72
8.39
5.52
1.92
-2.42
-7.32
-12.43
-17.43
-22.14
-26.57
-30.97
-35.65
-40.73
-46.00
-50.90
-54.64
-56.44
-55.79
-52.61
-47.20
-40.14
-32.14
-23.78
-15.53
-7.64
-0.28
6.50
12.59
17.92
22.39
25.99
28.71
30.62
31.86
32.60
33.05
33.32
33.48
33.46
33.19
32.61
31.76
30.80
29.87
29.06
28.29
27.39
26.21
24.67
22.86
20.93
19.04
17.28
15.60
13.87
11.95
9.66
6.91
3.69
0.08
-3.75
-7.51
-10.93
-13.85
-16.24
-18.33
-20.44
-22.95
-26.20
-30.36
-35.36
-40.76
-45.80
-49.52
-51.01
-49.67
-45.45
-38.88
-30.86
-22.40
-14.32
-7.06
-0.71
4.84
9.78
14.22
18.11
21.35
23.83
25.54
26.60
27.25
27.73
28.22
28.77
29.27
29.63
29.77
29.70
29.44
29.06
28.54
27.81
26.77
25.37
23.62
21.58
19.39
17.17
15.05
13.11
11.30
9.49
7.42
4.85
1.69
-1.96
-5.77
-9.36
-12.42
-14.87
-16.86
-18.72
-20.80
-23.43
-26.79
-30.88
-35.44
-39.97
-43.78
-46.07
-46.23
-43.96
-39.43
-33.17
-25.97
-18.58
-11.59
-5.32
0.10
4.69
8.47
11.41
13.52
14.86
15.57
15.93
16.23
16.69
17.36
18.12
18.76
19.10
19.09
18.80
18.46
18.17
17.95
17.64
17.00
15.84
14.14
12.04
9.75
7.47
5.29
3.11
0.82
-1.72
-4.51
-7.43
-10.26
-12.73
-14.67
-16.06
-17.08
-18.11
-19.60
-21.94
-25.32
-29.60
-34.32
-38.73
-42.02
-43.48
-42.72
-39.72
-34.84
-28.72
-22.07
-15.53
-9.50
-4.21
0.31
4.09
7.23
9.82
11.98
13.84
15.54
17.16
18.70
20.11
21.27
22.09
22.60
22.90
23.14
23.45
23.83
24.13
24.14
23.65
22.51
20.73
18.41
15.74
13.00
10.41
8.16
6.24
4.49
2.61
0.31
-2.58
-5.98
-9.57
-12.96
-15.84
-18.17
-20.20
-22.32
-24.96
-28.42
-32.73
-37.65
-42.63
-46.93
-49.71
-50.30
-48.37
-44.06
-37.93
-30.80
-23.48
-16.54
-10.25
-4.62
0.43
5.00
9.06
12.57
15.48
17.85
19.77
21.36
22.71
23.83
24.66
25.16
25.30
25.14
24.80
24.37
23.91
23.38
22.73
21.92
20.96
19.92
18.78
17.55
16.18
14.65
13.04
11.45
10.01
8.72
7.51
6.14
4.38
2.03
-0.95
-4.47
-8.34
-12.32
-16.22
-19.87
-23.26
-26.53
-29.95
-33.77
-38.11
-42.82
-47.41
-51.14
-53.18
-52.88
-49.99
-44.77
-37.85
-30.06
-22.15
-14.68
-7.90
-1.87
3.50
8.22
12.27
15.57
18.02
19.63
20.50
20.81
20.82
20.74
20.69
20.72
20.78
20.84
20.93
21.12
21.46
21.93
22.36
22.49
22.08
21.02
19.37
17.33
15.16
13.09
11.25
9.62
8.07
6.47
4.65
2.54
0.16
-2.43
-5.15
-7.88
-10.58
-13.25
-15.97
-18.90
-22.26
-26.26
-30.89
-35.91
-40.73
-44.58
-46.63
-46.32
-43.53
-38.58
-32.11
-24.90
-17.65
-10.86
-4.86
0.22
4.36
7.62
10.13
12.06
13.60
14.90
16.10
17.26
18.42
19.57
20.62
21.51
22.13
22.44
22.40
22.01
21.32
20.37
19.24
18.00
16.62
15.01
13.02
10.55
7.59
4.27
0.88
-2.32
-5.20
-7.72
-10.00
-12.18
-14.33
-16.50
-18.81
-21.42
-24.53
-28.25
-32.35
-36.28
-39.23
-40.37
-39.14
-35.46
-29.74
-22.78
-15.44
-8.46
-2.31
2.79
6.82
9.79
11.71
12.69
12.88
12.55
12.07
11.73
11.68
11.94
12.37
12.79
13.06
13.14
13.03
12.83
12.60
12.38
12.07
11.46
10.35
8.56
6.07
3.06
-0.19
-3.40
-6.39
-9.12
-11.72
-14.37
-17.31
-20.81
-25.05
-29.98
-35.24
-40.12
-43.68
-45.06
-43.69
-39.62
-33.35
-25.77
-17.77
-10.11
-3.26
2.59
7.45
11.38
14.46
16.76
18.37
19.35
19.81
19.91
19.85
19.82
19.95
20.25
20.57
20.72
20.50
19.87
18.92
17.81
16.67
15.46
14.00
12.06
9.50
6.37
2.92
-0.50
-3.57
-6.11
-8.16
-9.91
-11.70
-13.95
-17.04
-21.23
-26.44
-32.27
-37.94
-42.50
-45.06
-45.04
-42.37
-37.40
-30.81
-23.38
-15.79
-8.53
-1.88
4.10
9.39
14.07
18.14
21.54
24.11
25.72
26.32
26.13
25.51
24.86
24.49
24.53
24.84
25.18
25.31
25.11
24.60
23.90
23.09
22.20
21.13
19.70
17.73
15.12
11.90
8.22
4.32
0.42
-3.39
-7.08
-10.75
-14.43
-18.17
-22.07
-26.18
-30.60
-35.29
-39.92
-43.87
-46.23
-46.13
-43.07
-37.17
-29.18
-20.25
-11.55
-3.83
2.66
8.12
12.93
17.36
21.44
25.02
27.92
30.07
31.58
32.63
33.41
34.00
34.40
34.57
34.55
34.42
34.30
34.24
34.16
33.84
33.02
31.45
29.10
26.11
22.82
19.60
16.76
14.38
12.33
10.29
7.93
5.03
1.62
-2.10
-5.77
-9.10
-11.96
-14.49
-17.01
-19.97
-23.76
-28.52
-34.06
-39.79
-44.80
-48.08
-48.80
-46.50
-41.28
-33.72
-24.76
-15.45
-6.72
0.74
6.68
11.16
14.52
17.20
19.51
21.56
23.23
24.35
24.83
24.74
24.36
23.96
23.67
23.47
23.21
22.71
21.88
20.71
19.28
17.64
15.90
14.11
12.34
10.66
9.10
7.61
6.14
4.61
2.97
1.18
-0.77
-2.91
-5.20
-7.63
-10.22
-13.02
-16.22
-20.00
-24.43
-29.27
-33.93
-37.53
-39.20
-38.29
-34.67
-28.72
-21.28
-13.34
-5.80
0.74
6.12
10.50
14.16
17.33
20.03
22.15
23.55
24.23
24.42
24.41
24.50
24.82
25.31
25.88
26.46
27.03
27.60
28.04
28.11
27.49
25.92
23.38
20.08
16.40
12.72
9.34
6.32
3.54
0.78
-2.19
-5.45
-8.90
-12.28
-15.32
-17.80
-19.78
-21.57
-23.64
-26.48
-30.34
-35.06
-40.04
-44.39
-47.12
-47.49
-45.19
-40.45
-33.90
-26.36
-18.57
-11.05
-4.07
2.28
7.99
13.04
17.37
20.89
23.53
25.36
26.54
27.36
28.09
28.90
29.81
30.69
31.32
31.57
31.44
31.03
30.47
29.81
28.93
27.61
25.72
23.19
20.18
16.96
13.87
11.18
9.07
7.47
6.19
4.90
3.33
1.34
-1.07
-3.72
-6.41
-8.99
-11.41
-13.76
-16.24
-19.11
-22.64
-27.03
-32.29
-38.10
-43.81
-48.51
-51.24
-51.30
-48.39
-42.78
-35.20
-26.59
-17.88
-9.78
-2.68
3.35
8.43
12.74
16.45
19.64
22.28
24.29
25.61
26.29
26.47
26.38
26.22
26.11
26.05
25.98
25.80
25.44
24.91
24.27
23.54
22.72
21.74
20.48
18.89
17.01
14.98
13.03
11.28
9.73
8.25
6.57
4.47
1.90
-1.01
-4.04
-6.93
-9.60
-12.16
-14.93
-18.25
-22.32
-27.16
-32.50
-37.81
-42.39
-45.47
-46.36
-44.69
-40.50
-34.31
-26.96
-19.32
-12.07
-5.52
0.32
5.56
10.17
14.01
16.86
18.63
19.44
19.58
19.42
19.22
19.10
19.04
18.94
18.75
18.47
18.15
17.79
17.36
16.78
15.92
14.73
13.21
11.42
9.45
7.36
5.13
2.72
0.15
-2.55
-5.22
-7.69
-9.91
-11.92
-13.97
-16.32
-19.25
-22.85
-27.10
-31.71
-36.22
-39.95
-42.18
-42.27
-39.88
-35.13
-28.54
-20.90
-13.04
-5.61
1.00
6.66
11.34
15.12
18.04
20.16
21.54
22.31
22.64
22.71
22.69
22.67
22.69
22.72
22.66
22.49
22.15
21.66
21.05
20.34
19.49
18.41
17.06
15.40
13.52
11.53
9.55
7.68
5.85
3.97
1.86
-0.58
-3.38
-6.42
-9.52
-12.42
-14.97
-17.21
-19.35
-21.77
-24.84
-28.76
-33.41
-38.27
-42.54
-45.32
-45.86
-43.78
-39.23
-32.83
-25.46
-17.97
-10.98
-4.75
0.75
5.60
9.84
13.36
16.02
17.82
18.91
19.60
20.19
20.85
21.54
22.13
22.47
22.54
22.42
22.29
22.22
22.25
22.26
22.10
21.60
20.64
19.21
17.31
15.11
12.79
10.56
8.52
6.67
4.85
2.84
0.45
-2.34
-5.37
-8.36
-11.02
-13.20
-15.00
-16.66
-18.57
-21.05
-24.31
-28.32
-32.84
-37.35
-41.08
-43.24
-43.14
-40.44
-35.29
-28.34
-20.48
-12.59
-5.30
1.09
6.60
11.33
15.34
18.54
20.76
21.93
22.13
21.66
20.96
20.42
20.21
20.27
20.32
20.13
19.66
19.05
18.51
18.19
18.03
17.77
17.18
16.07
14.53
12.76
11.05
9.55
8.28
7.08
5.74
4.02
1.74
-1.09
-4.31
-7.64
-10.74
-13.40
-15.62
-17.61
-19.76
-22.48
-25.99
-30.20
-34.69
-38.68
-41.25
-41.62
-39.40
-34.69
-28.18
-20.76
-13.34
-6.57
-0.69
4.30
8.47
11.83
14.31
15.81
16.36
16.14
15.43
14.56
13.75
13.14
12.77
12.63
12.66
12.80
12.92
12.92
12.72
12.29
11.66
10.79
9.61
8.00
5.88
3.26
0.34
-2.59
-5.27
-7.56
-9.50
-11.32
-13.26
-15.49
-18.10
-21.10
-24.45
-28.04
-31.65
-34.85
-37.12
-37.86
-36.65
-33.43
-28.50
-22.44
-15.95
-9.58
-3.71
1.45
5.81
9.30
11.93
13.73
14.90
15.67
16.29
16.87
17.43
17.91
18.23
18.44
18.58
18.72
18.84
18.81
18.47
17.70
16.55
15.16
13.67
12.15
10.55
8.69
6.47
3.84
0.96
-1.97
-4.70
-7.09
-9.12
-10.89
-12.66
-14.69
-17.27
-20.64
-24.87
-29.79
-34.88
-39.42
-42.52
-43.47
-41.89
-37.85
-31.85
-24.68
-17.17
-9.99
-3.52
2.18
7.19
11.65
15.61
18.97
21.59
23.35
24.29
24.57
24.48
24.29
24.17
24.12
24.07
23.92
23.68
23.41
23.19
23.02
22.77
22.15
20.92
18.96
16.44
13.76
11.34
9.44
8.02
6.75
5.16
2.93
-0.02
-3.47
-7.07
-10.48
-13.52
-16.18
-18.62
-21.04
-23.68
-26.73
-30.25
-34.17
-38.10
-41.46
-43.50
-43.57
-41.28
-36.71
-30.37
-23.05
-15.61
-8.65
-2.58
2.51
6.68
10.11
12.97
15.37
17.42
19.20
20.77
22.12
23.25
24.16
24.82
25.28
25.58
25.82
26.12
26.55
27.12
27.71
28.09
28.00
27.24
25.78
23.74
21.39
19.05
16.94
15.14
13.53
11.83
9.79
7.21
4.12
0.72
-2.71
-5.90
-8.76
-11.34
-13.85
-16.43
-19.28
-22.48
-26.08
-30.09
-34.29
-38.27
-41.39
-42.90
-42.23
-39.21
-34.12
-27.60
-20.43
-13.29
-6.67
-0.82
4.15
8.24
11.46
13.90
15.72
17.11
18.19
19.06
19.74
20.23
20.54
20.73
20.84
20.93
21.01
21.02
20.82
20.28
19.30
17.87
16.07
14.07
12.00
9.96
7.96
5.93
3.83
1.63
-0.62
-2.85
-5.02
-7.15
-9.27
-11.48
-13.83
-16.47
-19.58
-23.30
-27.67
-32.37
-36.77
-39.99
-41.15
-39.74
-35.75
-29.74
-22.58
-15.16
-8.18
-2.03
3.15
7.36
10.67
13.20
15.09
16.52
17.69
18.75
19.79
20.83
21.81
22.63
23.20
23.48
23.55
23.57
23.63
23.75
23.79
23.49
22.60
21.03
18.89
16.41
13.87
11.41
9.04
6.63
4.03
1.16
-1.91
-5.05
-8.08
-10.83
-13.29
-15.52
-17.73
-20.15
-23.03
-26.53
-30.66
-35.18
-39.55
-43.02
-44.77
-44.15
-40.93
-35.41
-28.33
-20.53
-12.83
-5.67
0.78
6.55
11.63
15.94
19.27
21.51
22.72
23.20
23.40
23.67
24.17
24.77
25.15
25.04
24.41
23.54
22.83
22.61
22.90
23.37
23.51
22.84
21.17
18.63
15.64
12.67
10.04
7.87
6.04
4.36
2.64
0.78
-1.28
-3.48
-5.78
-8.10
-10.39
-12.67
-15.08
-17.81
-21.20
-25.43
-30.48
-35.93
-40.98
-44.71
-46.26
-45.12
-41.30
-35.29
-27.96
-20.24
-12.93
-6.49
-1.00
3.75
8.07
12.15
15.93
19.12
21.42
22.74
23.22
23.24
23.15
23.13
23.13
22.98
22.57
21.96
21.30
20.76
20.41
20.06
19.48
18.43
16.84
14.85
12.73
10.74
9.01
7.53
6.09
4.45
2.44
0.08
-2.45
-4.89
-7.06
-8.94
-10.72
-12.77
-15.47
-19.12
-23.70
-28.86
-33.91
-37.98
-40.21
-40.04
-37.35
-32.48
-26.16
-19.23
-12.44
-6.28
-0.99
3.47
7.23
10.42
13.11
15.22
16.69
17.50
17.76
17.66
17.46
17.34
17.33
17.38
17.38
17.20
16.83
16.26
15.46
14.44
13.16
11.64
9.92
8.06
6.12
4.12
2.05
-0.10
-2.28
-4.49
-6.65
-8.76
-10.80
-12.79
-14.79
-16.97
-19.52
-22.66
-26.48
-30.78
-35.01
-38.37
-40.04
-39.43
-36.40
-31.31
-24.86
-17.92
-11.18
-5.14
0.03
4.40
8.15
11.51
14.59
17.40
19.81
21.67
22.93
23.63
23.97
24.13
24.30
24.50
24.68
24.76
24.72
24.52
24.17
23.60
22.66
21.16
18.98
16.15
12.91
9.57
6.49
3.72
1.15
-1.48
-4.42
-7.67
-11.03
-14.11
-16.60
-18.43
-19.85
-21.34
-23.40
-26.41
-30.42
-35.13
-39.93
-43.98
-46.45
-46.68
-44.39
-39.73
-33.24
-25.64
-17.73
-10.08
-3.10
3.02
8.29
12.77
16.54
19.58
21.91
23.51
24.51
25.06
25.38
25.61
25.77
25.84
25.73
25.50
25.25
25.10
25.13
25.22
25.15
24.70
23.72
22.21
20.26
18.08
15.91
13.96
12.36
11.11
10.00
8.71
7.00
4.77
2.07
-0.89
-3.90
-6.86
-9.70
-12.42
-15.02
-17.59
-20.27
-23.35
-27.16
-31.82
-37.14
-42.45
-46.82
-49.27
-49.11
-46.14
-40.71
-33.56
-25.61
-17.70
-10.37
-3.88
1.81
6.85
11.31
15.11
18.11
20.18
21.38
21.95
22.23
22.50
22.88
23.33
23.75
24.12
24.54
25.12
25.87
26.62
27.09
26.98
26.16
24.73
22.97
21.21
19.72
18.63
17.87
17.24
16.40
14.99
12.78
9.70
5.93
1.90
-1.93
-5.21
-7.82
-9.89
-11.72
-13.72
-16.23
-19.49
-23.66
-28.58
-33.89
-38.86
-42.60
-44.27
-43.34
-39.79
-34.10
-27.11
-19.71
-12.61
-6.24
-0.76
3.85
7.67
10.76
13.12
14.74
15.67
16.01
15.92
15.63
15.36
15.29
15.54
16.07
16.83
17.68
18.36
18.70
18.52
17.70
16.31
14.52
12.55
10.65
8.92
7.40
6.01
4.62
3.03
1.10
-1.19
-3.79
-6.55
-9.34
-12.11
-14.93
-17.99
-21.52
-25.63
-30.11
-34.41
-37.67
-39.02
-37.86
-34.07
-28.14
-20.98
-13.60
-6.82
-1.05
3.70
7.65
11.04
13.97
16.39
18.24
19.57
20.53
21.33
22.09
22.85
23.51
23.97
24.20
24.31
24.47
24.79
25.17
25.40
25.11
24.03
22.07
19.37
16.28
13.14
10.22
7.56
5.02
2.41
-0.46
-3.58
-6.80
-9.85
-12.55
-14.83
-16.83
-18.82
-21.20
-24.28
-28.31
-33.24
-38.72
-44.02
-48.16
-50.11
-49.16
-45.18
-38.74
-30.86
-22.70
-15.13
-8.54
-2.88
2.10
6.61
10.67
14.15
16.91
18.97
20.49
21.76
22.97
24.16
25.20
25.83
25.88
25.27
24.19
22.90
21.72
20.79
20.06
19.33
18.37
17.05
15.39
13.53
11.61
9.75
7.95
6.16
4.29
2.26
0.03
-2.35
-4.83
-7.25
-9.47
-11.39
-13.03
-14.53
-16.16
-18.28
-21.19
-25.08
-29.80
-34.81
-39.30
-42.25
-42.88
-40.82
-36.33
-30.16
-23.26
-16.51
-10.39
-5.06
-0.38
3.87
7.80
11.42
14.70
17.59
20.03
22.02
23.54
24.58
25.13
25.24
24.98
24.46
23.74
22.87
21.84
20.67
19.36
17.92
16.38
14.74
13.05
11.40
9.92
8.67
7.63
6.58
5.24
3.36
0.88
-2.00
-4.89
-7.38
-9.25
-10.59
-11.76
-13.28
-15.59
-18.93
-23.17
-27.88
-32.32
-35.63
-37.09
-36.26
-33.13
-28.17
-22.15
-15.95
-10.30
-5.60
-1.86
1.21
3.96
6.63
9.24
11.59
13.45
14.71
15.43
15.81
16.08
16.38
16.75
17.13
17.50
17.85
18.17
18.39
18.36
17.96
17.11
15.82
14.16
12.22
10.03
7.57
4.85
1.93
-1.08
-4.02
-6.80
-9.37
-11.87
-14.50
-17.54
-21.23
-25.67
-30.68
-35.79
-40.29
-43.38
-44.43
-43.17
-39.70
-34.43
-27.97
-20.92
-13.82
-7.09
-1.04
4.12
8.29
11.47
13.83
15.57
16.89
17.96
18.90
19.74
20.46
21.04
21.51
21.91
22.27
22.64
22.96
23.16
23.11
22.69
21.80
20.40
18.55
16.35
14.01
11.69
9.46
7.29
5.07
2.65
-0.02
-2.87
-5.79
-8.62
-11.29
-13.86
-16.50
-19.45
-22.98
-27.24
-32.24
-37.60
-42.59
-46.21
-47.48
-45.83
-41.32
-34.71
-27.06
-19.40
-12.36
-6.11
-0.49
4.68
9.42
13.63
17.10
19.74
21.61
22.93
23.95
24.88
25.78
26.58
27.13
27.28
27.00
26.39
25.70
25.11
24.76
24.56
24.30
23.74
22.70
21.19
19.34
17.37
15.47
13.77
12.29
10.99
9.72
8.32
6.61
4.48
1.96
-0.86
-3.81
-6.78
-9.73
-12.72
-15.91
-19.44
-23.43
-27.92
-32.78
-37.74
-42.31
-45.81
-47.53
-46.86
-43.55
-37.83
-30.44
-22.31
-14.40
-7.29
-1.22
3.89
8.23
11.96
15.09
17.62
19.55
21.01
22.18
23.21
24.14
24.93
25.45
25.68
25.66
25.54
25.43
25.34
25.16
24.71
23.87
22.58
20.93
19.07
17.11
15.12
13.08
10.98
8.79
6.49
4.07
1.53
-1.07
-3.65
-6.07
-8.25
-10.31
-12.55
-15.37
-19.09
-23.78
-29.16
-34.49
-38.87
-41.38
-41.40
-38.72
-33.65
-26.92
-19.44
-12.07
-5.41
0.31
5.11
9.12
12.41
14.94
16.65
17.50
17.65
17.37
16.96
16.63
16.49
16.52
16.67
16.93
17.29
17.68
17.95
17.90
17.37
16.35
14.94
13.34
11.70
10.03
8.21
6.12
3.76
1.20
-1.37
-3.80
-6.06
-8.26
-10.65
-13.48
-16.99
-21.30
-26.37
-31.83
-37.05
-41.18
-43.36
-43.00
-39.95
-34.66
-27.95
-20.76
-13.86
-7.63
-2.12
2.76
7.14
10.97
14.11
16.43
17.93
18.76
19.16
19.38
19.52
19.67
19.86
20.14
20.56
21.13
21.74
22.20
22.27
21.83
20.78
19.22
17.25
14.99
12.54
10.00
7.45
4.96
2.56
0.18
-2.33
-5.14
-8.31
-11.72
-15.22
-18.65
-22.03
-25.57
-29.57
-34.18
-39.21
-44.00
-47.60
-49.09
-47.84
-43.83
-37.57
-29.96
-21.88
-14.01
-6.73
-0.16
5.71
10.80
14.97
18.12
20.29
21.62
22.44
23.05
23.59
24.08
24.38
24.40
24.15
23.78
23.50
23.40
23.45
23.44
23.19
22.55
21.50
20.10
18.42
16.54
14.51
12.39
10.25
8.13
5.96
3.61
1.00
-1.91
-4.98
-7.99
-10.76
-13.26
-15.62
-18.17
-21.24
-25.05
-29.51
-34.21
-38.43
-41.29
-42.03
-40.24
-35.94
-29.69
-22.31
-14.69
-7.57
-1.42
3.60
7.58
10.70
13.18
15.21
16.91
18.34
19.53
20.49
21.21
21.72
22.07
22.32
22.55
22.81
23.14
23.51
23.86
24.07
24.04
23.72
23.09
22.14
20.89
19.30
17.37
15.06
12.38
9.29
5.81
1.95
-2.20
-6.44
-10.47
-14.05
-17.01
-19.49
-21.83
-24.46
-27.68
-31.43
-35.28
-38.48
-40.18
-39.72
-36.81
-31.60
-24.72
-16.98
-9.32
-2.43
3.26
7.75
11.21
13.91
16.00
17.54
18.51
19.00
19.19
19.34
19.66
20.23
20.92
21.54
21.92
22.01
21.84
21.49
20.92
20.03
18.75
17.06
15.01
12.79
10.53
8.27
5.98
3.57
0.97
-1.79
-4.63
-7.49
-10.33
-13.13
-15.96
-18.88
-22.02
-25.51
-29.43
-33.72
-38.03
-41.73
-44.01
-44.13
-41.71
-36.88
-30.23
-22.64
-14.96
-7.82
-1.52
3.91
8.58
12.64
16.18
19.27
21.91
24.07
25.75
26.95
27.67
27.95
27.82
27.35
26.68
25.96
25.35
24.91
24.55
24.04
23.11
21.58
19.46
16.92
14.25
11.69
9.33
7.13
4.92
2.53
-0.08
-2.89
-5.72
-8.44
-10.97
-13.34
-15.62
-17.94
-20.44
-23.22
-26.40
-30.08
-34.15
-38.27
-41.80
-43.89
-43.76
-41.03
-35.91
-29.14
-21.74
-14.58
-8.21
-2.72
2.04
6.29
10.15
13.60
16.52
18.85
20.62
21.86
22.69
23.24
23.55
23.66
23.57
23.23
22.65
21.92
21.18
20.61
20.27
20.03
19.63
18.80
17.38
15.46
13.35
11.39
9.85
8.74
7.88
6.93
5.62
3.78
1.43
-1.22
-3.91
-6.38
-8.50
-10.36
-12.22
-14.45
-17.43
-21.38
-26.28
-31.80
-37.29
-41.87
-44.61
-44.83
-42.24
-37.14
-30.27
-22.64
-15.17
-8.47
-2.75
2.06
6.16
9.66
12.57
14.92
16.68
17.93
18.81
19.46
20.00
20.47
20.86
21.18
21.46
21.81
22.27
22.84
23.36
23.60
23.26
22.16
20.28
17.81
15.06
12.39
9.96
7.76
5.63
3.38
0.91
-1.69
-4.25
-6.57
-8.55
-10.25
-11.88
-13.74
-16.15
-19.34
-23.39
-28.05
-32.76
-36.65
-38.84
-38.63
-35.81
-30.74
-24.16
-16.98
-10.05
-3.90
1.26
5.45
8.76
11.28
12.99
13.85
13.87
13.25
12.32
11.48
11.07
11.20
11.75
12.41
12.89
12.98
12.71
12.24
11.73
11.27
10.76
10.05
8.92
7.31
5.24
2.87
0.43
-1.92
-4.12
-6.25
-8.48
-11.02
-14.03
-17.59
-21.71
-26.25
-30.90
-35.19
-38.49
-40.18
-39.75
-36.96
-31.99
-25.42
-18.06
-10.73
-4.06
1.64
6.38
10.37
13.79
16.76
19.24
21.08
22.14
22.42
22.02
21.16
20.12
19.13
18.31
17.66
17.11
16.55
15.88
15.06
14.13
13.13
12.12
11.06
9.86
8.42
6.62
4.46
1.99
-0.67
-3.40
-6.10
-8.72
-11.24
-13.77
-16.48
-19.62
-23.40
-27.89
-32.91
-37.96
-42.30
-45.08
-45.56
-43.34
-38.50
-31.62
-23.60
-15.44
-7.92
-1.43
3.98
8.53
12.43
15.87
18.84
21.35
23.40
25.05
26.35
27.25
27.71
27.62
27.01
26.03
24.94
23.97
23.28
22.80
22.35
21.70
20.65
19.10
17.06
14.65
12.03
9.36
6.73
4.17
1.65
-0.94
-3.62
-6.42
-9.25
-12.02
-14.63
-17.06
-19.45
-22.01
-25.05
-28.80
-33.26
-38.14
-42.79
-46.28
-47.78
-46.75
-43.07
-37.21
-29.96
-22.21
-14.67
-7.76
-1.59
3.90
8.80
13.11
16.71
19.50
21.41
22.56
23.21
23.66
24.15
24.70
25.19
25.45
25.40
25.10
24.73
24.44
24.26
24.06
23.61
22.74
21.37
19.66
17.85
16.16
14.68
13.27
11.74
9.83
7.45
4.67
1.70
-1.23
-3.95
-6.48
-8.98
-11.76
-15.14
-19.36
-24.51
-30.38
-36.46
-41.96
-45.96
-47.68
-46.67
-43.00
-37.18
-30.02
-22.38
-14.96
-8.14
-2.09
3.28
8.06
12.35
16.11
19.24
21.65
23.27
24.13
24.40
24.34
24.20
24.14
24.17
24.20
24.06
23.70
23.10
22.30
21.34
20.13
18.60
16.71
14.55
12.29
10.14
8.20
6.38
4.49
2.34
-0.12
-2.78
-5.45
-7.97
-10.28
-12.45
-14.65
-17.13
-20.07
-23.61
-27.64
-31.81
-35.50
-37.88
-38.21
-36.05
-31.42
-24.94
-17.50
-10.09
-3.40
2.27
6.96
10.88
14.18
16.89
18.90
20.16
20.72
20.82
20.78
20.88
21.21
21.70
22.19
22.50
22.57
22.31
21.77
20.95
19.86
18.50
16.88
15.04
13.03
10.93
8.78
6.55
4.18
1.63
-1.10
-3.94
-6.71
-9.24
-11.46
-13.41
-15.35
-17.63
-20.67
-24.69
-29.65
-35.10
-40.21
-44.06
-45.77
-44.85
-41.25
-35.39
-28.00
-19.96
-12.08
-5.05
0.77
5.29
8.72
11.40
13.68
15.74
17.61
19.23
20.50
21.44
22.17
22.75
23.24
23.59
23.80
23.89
23.96
24.11
24.33
24.50
24.37
23.73
22.43
20.49
18.07
15.40
12.71
10.12
7.61
5.06
2.32
-0.73
-4.11
-7.72
-11.36
-14.80
-17.82
-20.32
-22.38
-24.26
-26.36
-29.15
-32.77
-36.98
-41.03
-43.86
-44.43
-42.15
-37.10
-29.94
-21.76
-13.60
-6.26
-0.09
4.90
8.97
12.38
15.39
18.05
20.33
22.10
23.32
24.05
24.49
24.86
25.31
25.84
26.37
26.76
26.96
27.01
26.96
26.86
26.64
26.15
25.27
23.91
22.06
19.84
17.35
14.74
12.17
9.77
7.63
5.76
4.10
2.45
0.66
-1.46
-3.95
-6.72
-9.56
-12.27
-14.69
-16.88
-19.08
-21.62
-24.81
-28.81
-33.48
-38.44
-43.05
-46.48
-47.99
-46.99
-43.30
-37.22
-29.45
-20.96
-12.68
-5.25
1.02
6.12
10.20
13.40
15.81
17.53
18.69
19.50
20.21
20.97
21.76
22.45
22.86
22.87
22.56
22.18
22.00
22.15
22.57
22.89
22.68
21.62
19.67
17.07
14.26
11.66
9.50
7.75
6.23
4.70
3.00
1.12
-0.88
-2.89
-4.82
-6.69
-8.55
-10.55
-12.84
-15.64
-19.07
-23.17
-27.78
-32.43
-36.46
-39.05
-39.49
-37.43
-32.98
-26.77
-19.70
-12.64
-6.24
-0.77
3.76
7.46
10.36
12.47
13.77
14.33
14.37
14.18
14.01
14.02
14.24
14.58
14.95
15.26
15.45
15.50
15.42
15.17
14.70
13.99
13.02
11.81
10.35
8.66
6.73
4.57
2.14
-0.59
-3.58
-6.77
-10.01
-13.12
-15.98
-18.63
-21.26
-24.20
-27.68
-31.71
-35.93
-39.65
-42.01
-42.30
-40.20
-35.86
-29.86
-23.00
-16.05
-9.53
-3.69
1.43
5.88
9.68
12.78
15.13
16.70
17.62
18.03
18.10
17.97
17.72
17.38
16.99
16.56
16.08
15.51
14.78
13.81
12.53
10.95
9.14
7.11
4.91
2.51
-0.10
-2.92
-5.84
-8.73
-11.42
-13.77
-15.80
-17.63
-19.56
-21.96
-25.14
-29.23
-33.99
-38.85
-42.96
-45.42
-45.53
-43.00
-38.08
-31.39
-23.79
-16.09
-8.89
-2.46
3.15
8.03
12.21
15.70
18.47
20.51
21.93
22.86
23.50
23.91
24.12
24.09
23.80
23.29
22.67
22.05
21.47
20.94
20.36
19.67
18.82
17.82
16.66
15.23
13.41
11.11
8.27
4.97
1.40
-2.21
-5.63
-8.74
-11.60
-14.43
-17.56
-21.33
-25.93
-31.26
-36.86
-41.96
-45.69
-47.29
-46.39
-42.99
-37.53
-30.73
-23.30
-15.88
-8.87
-2.46
3.31
8.45
12.98
16.92
20.31
23.17
25.54
27.47
28.97
30.02
30.60
30.71
30.45
29.97
29.47
29.10
28.91
28.80
28.54
27.89
26.64
24.80
22.51
20.07
17.73
15.66
13.78
11.87
9.67
7.00
3.86
0.41
-3.04
-6.22
-9.01
-11.50
-13.98
-16.81
-20.36
-24.75
-29.91
-35.44
-40.71
-44.98
-47.45
-47.53
-44.94
-39.86
-32.83
-24.67
-16.27
-8.33
-1.24
4.92
10.21
14.75
18.50
21.43
23.51
24.84
25.66
26.27
26.83
27.34
27.68
27.69
27.35
26.78
26.23
25.89
25.82
25.90
25.86
25.45
24.54
23.15
21.44
19.56
17.66
15.72
13.61
11.20
8.42
5.30
1.99
-1.35
-4.60
-7.76
-10.90
-14.17
-17.77
-21.88
-26.57
-31.73
-36.97
-41.62
-44.81
-45.72
-43.91
-39.46
-33.00
-25.53
-18.01
-11.14
-5.20
-0.10
4.43
8.59
12.45
15.89
18.74
20.84
22.15
22.76
22.86
22.66
22.36
22.10
21.98
22.02
22.16
22.31
22.32
22.02
21.28
20.04
18.31
16.21
13.93
11.62
9.37
7.19
4.97
2.57
-0.08
-2.98
-5.98
-8.96
-11.77
-14.44
-17.11
-20.06
-23.56
-27.77
-32.58
-37.50
-41.69
-44.19
-44.16
-41.19
-35.48
-27.83
-19.37
-11.24
-4.22
1.45
5.97
9.78
13.28
16.59
19.58
21.98
23.59
24.41
24.62
24.51
24.32
24.14
23.98
23.76
23.43
22.99
22.50
21.97
21.38
20.64
19.61
18.18
16.29
13.94
11.21
8.19
4.98
1.64
-1.74
-5.07
-8.26
-11.24
-14.01
-16.67
-19.45
-22.62
-26.39
-30.73
-35.35
-39.63
-42.72
-43.82
-42.39
-38.41
-32.39
-25.19
-17.77
-10.88
-4.90
0.16
4.51
8.39
11.91
15.05
17.72
19.89
21.56
22.84
23.80
24.51
24.99
25.28
25.48
25.70
26.03
26.39
26.56
26.27
25.32
23.67
21.48
19.04
16.58
14.27
12.10
9.96
7.69
5.14
2.25
-1.00
-4.50
-8.02
-11.36
-14.34
-16.95
-19.33
-21.82
-24.79
-28.49
-32.91
-37.67
-42.09
-45.30
-46.52
-45.23
-41.41
-35.49
-28.22
-20.45
-12.91
-6.06
-0.03
5.25
9.95
14.15
17.83
20.87
23.16
24.67
25.42
25.57
25.28
24.73
24.12
23.58
23.26
23.20
23.37
23.61
23.66
23.28
22.26
20.50
18.08
15.27
12.38
9.74
7.56
5.78
4.17
2.39
0.24
-2.32
-5.07
-7.69
-9.97
-11.85
-13.60
-15.63
-18.43
-22.27
-27.10
-32.43
-37.39
-40.88
-41.95
-40.15
-35.61
-29.09
-21.63
-14.20
-7.45
-1.61
3.46
7.90
11.81
15.13
17.72
19.43
20.26
20.33
19.92
19.33
18.79
18.41
18.16
17.92
17.52
16.91
16.09
15.18
14.30
13.49
12.74
11.93
10.91
9.59
7.98
6.07
3.97
1.74
-0.50
-2.69
-4.80
-6.83
-8.87
-11.06
-13.54
-16.49
-19.97
-23.95
-28.14
-32.02
-34.85
-35.94
-34.75
-31.27
-25.87
-19.36
-12.63
-6.36
-0.94
3.60
7.35
10.44
12.83
14.42
15.15
15.08
14.48
13.76
13.30
13.29
13.75
14.44
15.07
15.41
15.35
14.94
14.33
13.67
12.99
12.22
11.17
9.64
7.51
4.84
1.85
-1.18
-3.97
-6.43
-8.64
-10.82
-13.23
-16.04
-19.36
-23.21
-27.49
-31.94
-36.06
-39.15
-40.43
-39.28
-35.53
-29.58
-22.30
-14.73
-7.80
-1.93
2.88
6.96
10.62
14.02
17.05
19.50
21.19
22.09
22.36
22.28
22.09
21.95
21.96
22.10
22.30
22.43
22.41
22.13
21.52
20.55
19.26
17.67
15.83
13.71
11.36
8.82
6.18
3.51
0.87
-1.73
-4.30
-6.81
-9.27
-11.70
-14.19
-16.96
-20.22
-24.15
-28.70
-33.47
-37.79
-40.81
-41.80
-40.39
-36.67
-31.14
-24.53
-17.58
-10.89
-4.81
0.51
5.06
8.89
12.07
14.65
16.67
18.19
19.25
19.92
20.25
20.30
20.11
19.67
19.05
18.31
17.57
16.98
16.62
16.50
16.51
16.46
16.14
15.44
14.32
12.84
11.08
9.09
6.86
4.34
1.54
-1.51
-4.63
-7.64
-10.41
-12.93
-15.29
-17.71
-20.40
-23.49
-27.01
-30.75
-34.28
-37.05
-38.43
-37.93
-35.30
-30.71
-24.66
-17.87
-11.09
-4.86
0.54
5.11
9.03
12.44
15.40
17.82
19.56
20.56
20.89
20.78
20.49
20.25
20.18
20.29
20.49
20.68
20.78
20.73
20.47
19.96
19.22
18.24
17.07
15.72
14.16
12.37
10.29
7.93
5.34
2.61
-0.18
-2.98
-5.73
-8.43
-11.06
-13.71
-16.53
-19.75
-23.50
-27.75
-32.09
-35.79
-38.03
-38.10
-35.75
-31.24
-25.26
-18.69
-12.29
-6.52
-1.51
2.86
6.77
10.27
13.30
15.68
17.20
17.79
17.56
16.79
15.89
15.20
14.96
15.23
15.90
16.70
17.35
17.63
17.37
16.55
15.25
13.53
11.48
9.15
6.59
3.86
1.10
-1.49
-3.72
-5.52
-7.00
-8.45
-10.23
-12.66
-15.86
-19.79
-24.17
-28.53
-32.30
-34.82
-35.51
-34.05
-30.49
-25.25
-19.10
-12.88
-7.27
-2.60
1.16
4.29
7.02
9.51
11.66
13.34
14.40
14.87
14.98
15.04
15.34
15.95
16.79
17.58
18.08
18.19
17.95
17.48
16.87
16.04
14.85
13.04
10.50
7.30
3.72
0.15
-3.07
-5.70
-7.75
-9.40
-10.96
-12.74
-15.05
-18.09
-21.88
-26.33
-31.04
-35.41
-38.73
-40.29
-39.62
-36.66
-31.72
-25.52
-18.83
-12.39
-6.60
-1.57
2.84
6.87
10.66
14.20
17.33
19.80
21.46
22.32
22.53
22.34
21.94
21.50
21.09
20.79
20.60
20.53
20.48
20.28
19.82
18.96
17.73
16.24
14.62
12.93
11.11
9.04
6.61
3.82
0.74
-2.43
-5.51
-8.34
-10.82
-12.98
-14.97
-17.06
-19.62
-22.94
-27.09
-31.73
-36.14
-39.33
-40.44
-38.98
-35.10
-29.46
-23.02
-16.63
-10.83
-5.73
-1.16
3.14
7.29
11.25
14.79
17.67
19.73
20.98
21.57
21.70
21.59
21.38
21.14
20.94
20.77
20.65
20.54
20.37
20.01
19.33
18.24
16.75
14.98
13.06
11.16
9.26
7.30
5.10
2.58
-0.25
-3.26
-6.18
-8.81
-11.01
-12.86
-14.53
-16.32
-18.48
-21.22
-24.56
-28.33
-32.14
-35.34
-37.25
-37.23
-34.95
-30.50
-24.36
-17.34
-10.26
-3.79
1.71
6.20
9.85
12.87
15.43
17.57
19.29
20.55
21.34
21.74
21.82
21.73
21.55
21.41
21.32
21.26
21.19
20.99
20.61
19.96
19.06
17.90
16.53
14.95
13.16
11.16
8.90
6.38
3.64
0.82
-1.88
-4.25
-6.14
-7.61
-8.84
-10.15
-11.80
-14.03
-16.89
-20.34
-24.18
-28.12
-31.65
-34.12
-34.90
-33.50
-29.86
-24.36
-17.78
-11.02
-4.88
0.22
4.21
7.28
9.69
11.61
13.04
13.96
14.38
14.37
14.15
13.96
13.98
14.20
14.49
14.62
14.47
14.00
13.34
12.67
12.11
11.64
11.10
10.23
8.81
6.79
4.33
1.72
-0.76
-2.94
-4.83
-6.62
-8.48
-10.54
-12.88
-15.53
-18.59
-22.11
-25.99
-29.89
-33.11
-34.86
-34.47
-31.74
-27.00
-21.01
-14.62
-8.54
-3.15
1.49
5.42
8.70
11.34
13.31
14.59
15.21
15.23
14.77
14.06
13.32
12.77
12.46
12.34
12.20
11.88
11.39
10.92
10.66
10.69
10.80
10.58
9.60
7.73
5.11
2.16
-0.67
-3.12
-5.24
-7.26
-9.51
-12.21
-15.48
-19.30
-23.58
-28.14
-32.63
-36.54
-39.20
-39.99
-38.50
-34.78
-29.30
-22.84
-16.23
-10.07
-4.64
0.03
4.07
7.55
10.50
12.91
14.81
16.26
17.35
18.13
18.61
18.81
18.78
18.59
18.31
18.00
17.62
17.10
16.46
15.76
15.09
14.48
13.82
12.88
11.43
9.37
6.74
3.76
0.64
-2.48
-5.59
-8.75
-12.06
-15.57
-19.33
-23.36
-27.66
-32.09
-36.31
-39.73
-41.63
-41.38
-38.68
-33.68
-27.03
-19.63
-12.37
-5.85
-0.36
4.16
7.89
11.07
13.82
16.18
18.11
19.62
20.73
21.51
21.99
22.23
22.26
22.17
22.02
21.92
21.86
21.77
21.48
20.82
19.66
18.01
16.00
13.84
11.70
9.64
7.58
5.41
3.05
0.50
-2.16
-4.81
-7.45
-10.11
-12.95
-16.12
-19.74
-23.83
-28.26
-32.72
-36.70
-39.52
-40.51
-39.20
-35.50
-29.78
-22.77
-15.31
-8.10
-1.60
4.02
8.82
12.91
16.34
19.13
21.30
22.90
24.09
25.03
25.87
26.65
27.30
27.68
27.76
27.59
27.27
26.95
26.66
26.32
25.75
24.81
23.46
21.72
19.73
17.57
15.29
12.87
10.23
7.25
3.90
0.25
-3.50
-7.10
-10.33
-13.07
-15.45
-17.77
-20.40
-23.61
-27.44
-31.58
-35.44
-38.23
-39.25
-38.05
-34.57
-29.21
-22.62
-15.55
-8.65
-2.34
3.13
7.71
11.37
14.11
15.99
17.08
17.57
17.69
17.64
17.65
17.82
18.14
18.53
18.82
18.85
18.48
17.66
16.44
14.99
13.47
11.99
10.57
9.15
7.63
5.92
4.04
2.10
0.20
-1.56
-3.19
-4.76
-6.39
-8.25
-10.54
-13.42
-17.03
-21.34
-26.05
-30.54
-33.95
-35.46
-34.53
-31.10
-25.65
-18.97
-11.88
-5.01
1.28
6.85
11.62
15.51
18.44
20.37
21.36
21.60
21.33
20.80
20.22
19.76
19.49
19.42
19.51
19.63
19.65
19.46
18.98
18.24
17.28
16.12
14.75
13.08
10.98
8.42
5.43
2.17
-1.18
-4.47
-7.62
-10.59
-13.35
-15.92
-18.39
-20.92
-23.79
-27.23
-31.21
-35.39
-39.01
-41.20
-41.20
-38.71
-33.99
-27.76
-20.91
-14.20
-8.11
-2.76
1.93
6.06
9.71
12.83
15.36
17.32
18.82
20.04
21.11
22.08
22.87
23.35
23.42
23.09
22.41
21.49
20.39
19.12
17.69
16.08
14.34
12.55
10.73
8.86
6.86
4.62
2.08
-0.69
-3.49
-6.05
-8.11
-9.58
-10.63
-11.66
-13.17
-15.57
-19.06
-23.45
-28.30
-32.96
-36.74
-38.97
-39.12
-36.97
-32.62
-26.57
-19.58
-12.49
-5.96
-0.28
4.60
8.91
12.83
16.38
19.38
21.58
22.86
23.25
22.97
22.31
21.57
20.98
20.61
20.44
20.35
20.19
19.82
19.17
18.29
17.20
15.95
14.50
12.78
10.68
8.17
5.26
2.06
-1.29
-4.63
-7.78
-10.68
-13.31
-15.80
-18.39
-21.31
-24.71
-28.52
-32.37
-35.69
-37.77
-38.05
-36.24
-32.47
-27.20
-21.07
-14.76
-8.75
-3.28
1.57
5.86
9.61
12.78
15.33
17.20
18.39
19.00
19.14
18.99
18.71
18.48
18.35
18.35
18.42
18.53
18.63
18.75
18.89
19.00
18.98
18.67
17.93
16.67
14.88
12.59
9.92
7.01
4.03
1.13
-1.61
-4.24
-6.98
-10.10
-13.83
-18.23
-23.10
-28.02
-32.44
-35.74
-37.39
-37.02
-34.53
-30.08
-24.12
-17.29
-10.25
-3.58
2.36
7.39
11.49
14.67
16.98
18.47
19.22
19.40
19.23
18.93
18.67
18.49
18.29
17.94
17.36
16.60
15.83
15.17
14.64
14.03
13.03
11.34
8.90
5.85
2.59
-0.48
-3.08
-5.14
-6.75
-8.16
-9.62
-11.42
-13.81
-16.94
-20.79
-25.02
-29.05
-32.16
-33.63
-33.01
-30.24
-25.62
-19.79
-13.49
-7.40
-2.03
2.36
5.73
8.16
9.78
10.73
11.15
11.25
11.31
11.59
12.30
13.38
14.58
15.51
15.90
15.71
15.11
14.40
13.76
13.10
12.15
10.56
8.17
5.10
1.69
-1.67
-4.71
-7.44
-10.12
-13.07
-16.62
-20.91
-25.85
-31.09
-36.03
-39.90
-41.96
-41.68
-38.91
-33.96
-27.49
-20.30
-13.13
-6.45
-0.50
4.73
9.29
13.24
16.56
19.17
21.03
22.18
22.77
23.07
23.33
23.64
23.94
24.02
23.72
23.00
21.96
20.82
19.69
18.51
17.09
15.15
12.54
9.30
5.59
1.68
-2.17
-5.80
-9.13
-12.11
-14.85
-17.55
-20.52
-24.06
-28.29
-32.95
-37.47
-41.00
-42.70
-42.07
-39.06
-34.05
-27.73
-20.79
-13.84
-7.27
-1.28
4.10
8.92
13.24
17.06
20.36
23.06
25.09
26.45
27.23
27.59
27.66
27.52
27.12
26.40
25.39
24.16
22.88
21.71
20.69
19.71
18.57
17.08
15.16
12.87
10.37
7.85
5.45
3.17
0.97
-1.22
-3.47
-5.87
-8.55
-11.69
-15.44
-19.87
-24.83
-29.88
-34.31
-37.35
-38.33
-36.88
-33.07
-27.32
-20.35
-12.94
-5.80
0.58
6.01
10.52
14.28
17.49
20.25
22.57
24.36
25.59
26.32
26.73
27.02
27.29
27.50
27.48
27.04
26.11
24.82
23.43
22.16
21.14
20.34
19.55
18.55
17.17
15.27
12.87
10.00
6.79
3.46
0.23
-2.69
-5.19
-7.34
-9.43
-11.82
-14.85
-18.75
-23.51
-28.80
-34.05
-38.50
-41.35
-41.94
-39.95
-35.47
-29.04
-21.47
-13.64
-6.27
0.18
5.60
10.05
13.62
16.38
18.35
19.58
20.22
20.54
20.79
21.13
21.53
21.79
21.70
21.17
20.28
19.24
18.24
17.40
16.63
15.74
14.47
12.62
10.12
7.07
3.70
0.34
-2.73
-5.33
-7.48
-9.38
-11.34
-13.72
-16.79
-20.59
-24.91
-29.26
-32.93
-35.13
-35.20
-32.81
-28.10
-21.67
-14.39
-7.15
-0.65
4.77
9.15
12.76
15.92
18.74
21.15
22.90
23.78
23.75
23.06
22.11
21.37
21.11
21.37
21.94
22.51
22.83
22.71
22.10
21.01
19.46
17.46
15.01
12.12
8.82
5.22
1.46
-2.27
-5.77
-8.92
-11.65
-14.00
-16.16
-18.36
-20.90
-24.00
-27.72
-31.86
-35.93
-39.22
-41.01
-40.73
-38.13
-33.34
-26.84
-19.35
-11.63
-4.32
2.17
7.68
12.18
15.77
18.50
20.44
21.69
22.40
22.75
22.97
23.25
23.62
24.07
24.46
24.69
24.63
24.27
23.59
22.59
21.30
19.75
17.97
16.03
14.02
12.06
10.17
8.32
6.33
4.06
1.46
-1.40
-4.27
-6.96
-9.40
-11.71
-14.15
-17.02
-20.55
-24.73
-29.31
-33.80
-37.54
-39.86
-40.19
-38.29
-34.31
-28.71
-22.21
-15.54
-9.27
-3.76
0.90
4.83
8.24
11.34
14.21
16.78
18.91
20.44
21.34
21.71
21.75
21.68
21.67
21.75
21.90
22.02
22.01
21.74
21.10
19.98
18.39
16.40
14.11
11.64
9.10
6.55
4.03
1.56
-0.88
-3.28
-5.65
-7.97
-10.21
-12.44
-14.81
-17.51
-20.76
-24.59
-28.74
-32.63
-35.50
-36.63
-35.58
-32.39
-27.47
-21.52
-15.25
-9.26
-3.90
0.71
4.61
7.89
10.60
12.71
14.15
14.89
15.00
14.66
14.15
13.72
13.48
13.31
13.01
12.34
11.28
10.07
9.04
8.51
8.52
8.78
8.78
8.11
6.58
4.41
2.01
-0.27
-2.20
-3.90
-5.68
-7.83
-10.57
-13.94
-17.86
-22.12
-26.43
-30.34
-33.30
-34.70
-34.07
-31.21
-26.32
-20.02
-13.14
-6.51
-0.73
3.95
7.51
10.16
12.07
13.34
14.04
14.25
14.18
14.06
14.13
14.48
15.03
15.50
15.58
15.09
14.05
12.67
11.28
10.02
8.87
7.54
5.65
2.97
-0.47
-4.33
-8.09
-11.29
-13.77
-15.71
-17.51
-19.66
-22.49
-26.10
-30.28
-34.49
-37.99
-39.98
-39.80
-37.13
-32.16
-25.51
-18.07
-10.70
-4.00
1.76
6.59
10.58
13.77
16.13
17.64
18.37
18.51
18.33
18.07
17.85
17.67
17.50
17.26
16.93
16.52
16.05
15.52
14.95
14.30
13.49
12.38
10.84
8.66
5.83
2.47
-1.11
-4.56
-7.56
-10.00
-12.05
-14.05
-16.44
-19.54
-23.49
-28.10
-32.86
-37.03
-39.75
-40.34
-38.48
-34.34
-28.46
-21.62
-14.52
-7.72
-1.53
3.91
8.53
12.28
15.16
17.23
18.66
19.59
20.15
20.43
20.45
20.29
20.03
19.79
19.61
19.49
19.37
19.21
18.96
18.58
17.99
17.07
15.66
13.64
11.01
7.89
4.47
0.99
-2.37
-5.52
-8.42
-11.11
-13.65
-16.19
-18.89
-21.94
-25.42
-29.31
-33.26
-36.70
-38.92
-39.25
-37.31
-33.19
-27.40
-20.72
-13.92
-7.56
-1.88
3.15
7.61
11.57
14.97
17.69
19.61
20.69
21.06
20.90
20.47
19.99
19.58
19.25
18.92
18.45
17.75
16.87
15.92
15.06
14.34
13.65
12.76
11.38
9.38
6.79
3.82
0.73
-2.24
-4.98
-7.46
-9.70
-11.77
-13.85
-16.16
-18.98
-22.46
-26.43
-30.37
-33.47
-34.87
-34.03
-30.86
-25.83
-19.72
-13.37
-7.40
-2.15
2.27
5.94
8.91
11.22
12.89
14.01
14.73
15.24
15.74
16.33
16.99
17.60
18.00
18.09
17.83
17.29
16.61
15.95
15.31
14.64
13.70
12.25
10.13
7.35
4.17
0.94
-1.98
-4.35
-6.16
-7.67
-9.26
-11.36
-14.32
-18.19
-22.68
-27.17
-30.88
-33.02
-33.07
-30.89
-26.76
-21.21
-14.87
-8.38
-2.19
3.37
8.11
11.96
14.95
17.13
18.59
19.37
19.55
19.25
18.65
17.99
17.45
17.15
17.04
17.00
16.84
16.46
15.85
15.05
14.10
12.92
11.39
9.34
6.74
3.73
0.60
-2.31
-4.86
-7.07
-9.22
-11.67
-14.72
-18.45
-22.63
-26.73
-30.05
-31.88
-31.73
-29.46
-25.35
-20.03
-14.25
-8.69
-3.81
0.20
3.40
5.88
7.71
8.93
9.57
9.70
9.45
9.00
8.52
8.16
8.01
8.06
8.26
8.52
8.68
8.60
8.13
7.18
5.70
3.74
1.41
-1.12
-3.70
-6.21
-8.65
-11.12
-13.83
-17.04
-20.91
-25.33
-29.84
-33.68
-35.98
-35.99
-33.42
-28.55
-22.12
-15.08
-8.35
-2.49
2.30
6.11
9.15
11.54
13.32
14.50
15.14
15.36
15.38
15.39
15.48
15.59
15.64
15.52
15.26
14.96
14.74
14.60
14.37
13.75
12.43
10.20
7.09
3.34
-0.62
-4.40
-7.70
-10.52
-13.11
-15.90
-19.30
-23.50
-28.28
-33.00
-36.75
-38.55
-37.77
-34.29
-28.61
-21.58
-14.23
-7.31
-1.18
4.12
8.80
13.02
16.84
20.21
22.98
25.05
26.42
27.15
27.38
27.29
27.00
26.63
26.20
25.70
25.08
24.30
23.33
22.20
20.92
19.49
17.89
16.06
13.92
11.41
8.54
5.36
2.07
-1.12
-4.06
-6.67
-9.11
-11.63
-14.57
-18.20
-22.59
-27.54
-32.66
-37.36
-40.99
-42.94
-42.77
-40.31
-35.77
-29.65
-22.67
-15.48
-8.62
-2.29
3.42
8.56
13.13
17.05
20.22
22.61
24.25
25.29
25.92
26.33
26.66
26.96
27.27
27.49
27.54
27.29
26.67
25.67
24.38
22.94
21.42
19.84
18.13
16.12
13.74
10.95
7.87
4.66
1.48
-1.59
-4.58
-7.58
-10.71
-14.13
-17.90
-22.06
-26.55
-31.06
-35.11
-38.05
-39.21
-38.13
-34.71
-29.33
-22.65
-15.47
-8.46
-2.02
3.71
8.75
13.17
16.91
19.92
22.09
23.46
24.17
24.48
24.68
24.95
25.31
25.65
25.79
25.55
24.86
23.79
22.47
21.08
19.77
18.58
17.48
16.35
15.03
13.46
11.59
9.46
7.14
4.69
2.16
-0.49
-3.30
-6.35
-9.69
-13.36
-17.36
-21.62
-25.92
-29.90
-33.03
-34.76
-34.63
-32.44
-28.35
-22.82
-16.50
-10.05
-3.96
1.50
6.25
10.35
13.83
16.67
18.81
20.21
20.93
21.11
20.97
20.68
20.32
19.87
19.20
18.26
17.09
15.88
14.87
14.24
13.96
13.81
13.44
12.51
10.85
8.52
5.72
2.81
0.03
-2.46
-4.71
-6.91
-9.35
-12.27
-15.76
-19.72
-23.79
-27.46
-30.15
-31.34
-30.71
-28.18
-23.92
-18.35
-12.03
-5.60
0.35
5.36
9.19
11.80
13.33
13.99
14.02
13.66
13.14
12.63
12.19
11.85
11.52
11.15
10.74
10.35
10.07
9.86
9.60
9.08
8.11
6.55
4.48
2.04
-0.54
-3.10
-5.55
-7.95
-10.47
-13.32
-16.64
-20.42
-24.43
-28.13
-30.86
-31.97
-31.00
-27.91
-22.98
-16.87
-10.34
-4.11
1.33
5.72
9.06
11.47
13.07
14.02
14.44
14.44
14.11
13.56
12.89
12.18
11.51
10.93
10.49
10.22
10.09
10.00
9.79
9.24
8.21
6.58
4.41
1.83
-0.96
-3.74
-6.37
-8.78
-11.06
-13.39
-16.05
-19.31
-23.26
-27.63
-31.81
-34.89
-36.00
-34.63
-30.83
-25.18
-18.60
-11.95
-5.87
-0.57
3.98
7.96
11.48
14.53
17.03
18.93
20.27
21.17
21.81
22.29
22.62
22.70
22.38
21.55
20.28
18.78
17.29
16.00
14.83
13.53
11.73
9.23
6.11
2.69
-0.55
-3.32
-5.52
-7.37
-9.28
-11.57
-14.53
-18.21
-22.55
-27.25
-31.79
-35.41
-37.30
-36.86
-33.88
-28.73
-22.20
-15.23
-8.61
-2.74
2.39
6.94
11.10
14.89
18.14
20.64
22.27
23.12
23.46
23.60
23.84
24.29
24.92
25.60
26.11
26.23
25.78
24.65
22.88
20.65
18.28
16.05
14.04
12.14
10.10
7.65
4.74
1.55
-1.66
-4.64
-7.28
-9.66
-11.97
-14.42
-17.21
-20.50
-24.38
-28.83
-33.56
-37.94
-41.15
-42.38
-41.12
-37.39
-31.71
-24.94
-17.96
-11.44
-5.73
-0.85
3.40
7.21
10.67
13.76
16.38
18.42
19.85
20.78
21.41
21.96
22.53
23.12
23.60
23.82
23.69
23.18
22.36
21.30
20.06
18.61
16.94
14.99
12.75
10.26
7.56
4.78
2.02
-0.66
-3.22
-5.72
-8.23
-10.86
-13.73
-16.91
-20.43
-24.19
-27.95
-31.31
-33.77
-34.80
-34.00
-31.20
-26.56
-20.49
-13.54
-6.40
0.39
6.38
11.32
15.06
17.56
18.84
19.09
18.60
17.81
17.18
17.01
17.35
18.02
18.65
18.97
18.87
18.50
18.15
18.03
18.25
18.63
18.80
18.35
16.89
14.24
10.49
6.02
1.32
-3.11
-6.98
-10.22
-12.95
-15.35
-17.60
-19.84
-22.12
-24.46
-26.80
-28.94
-30.48
-30.88
-29.69
-26.67
-21.99
-16.18
-9.94
-3.98
1.23
5.46
8.74
11.18
12.92
14.01
14.50
14.47
14.07
13.53
13.05
12.71
12.44
12.10
11.55
10.80
9.99
9.31
8.88
8.64
8.41
7.95
7.11
5.84
4.17
2.24
0.13
-2.05
-4.23
-6.43
-8.70
-11.19
-14.08
-17.43
-21.13
-24.82
-27.95
-29.85
-30.01
-28.14
-24.33
-19.09
-13.11
-7.12
-1.69
2.94
6.75
9.80
12.15
13.73
14.44
14.29
13.43
12.21
11.01
10.09
9.54
9.24
8.96
8.50
7.78
6.82
5.69
4.44
3.13
1.69
0.05
-1.84
-3.96
-6.23
-8.60
-11.04
-13.66
-16.60
-19.96
-23.65
-27.34
-30.48
-32.43
-32.70
-31.07
-27.71
-23.09
-17.79
-12.37
-7.22
-2.58
1.42
4.68
7.15
8.77
9.62
9.85
9.75
9.59
9.57
9.80
10.24
10.77
11.25
11.57
11.67
11.51
11.06
10.28
9.09
7.40
5.21
2.59
-0.28
-3.20
-5.97
-8.52
-10.91
-13.37
-16.24
-19.81
-24.13
-28.87
-33.34
-36.62
-37.87
-36.60
-32.90
-27.36
-20.84
-14.20
-7.97
-2.33
2.69
7.12
10.89
13.84
15.84
16.93
17.31
17.25
17.00
16.70
16.36
15.94
15.43
14.82
14.18
13.59
13.08
12.69
12.36
11.92
11.18
9.86
7.81
5.02
1.74
-1.65
-4.80
-7.54
-10.06
-12.78
-16.22
-20.70
-26.08
-31.79
-36.84
-40.25
-41.29
-39.78
-35.97
-30.53
-24.19
-17.63
-11.27
-5.34
0.09
5.05
9.54
13.55
16.97
19.73
21.78
23.20
24.15
24.85
25.46
25.98
26.27
26.12
25.45
24.34
22.98
21.64
20.49
19.44
18.30
16.72
14.47
11.48
7.93
4.18
0.61
-2.48
-5.03
-7.19
-9.29
-11.70
-14.75
-18.57
-23.04
-27.84
-32.35
-35.86
-37.70
-37.35
-34.70
-30.10
-24.15
-17.63
-11.14
-5.06
0.53
5.69
10.43
14.67
18.21
20.87
22.57
23.40
23.60
23.49
23.35
23.32
23.39
23.44
23.34
23.01
22.42
21.62
20.66
19.58
18.32
16.82
14.98
12.72
10.04
6.97
3.68
0.38
-2.70
-5.36
-7.56
-9.42
-11.22
-13.28
-15.88
-19.14
-23.05
-27.36
-31.60
-35.15
-37.29
-37.41
-35.21
-30.82
-24.78
-17.88
-10.84
-4.19
1.82
7.12
11.67
15.40
18.21
20.12
21.28
21.97
22.51
23.06
23.65
24.14
24.28
23.97
23.18
22.05
20.82
19.69
18.76
17.99
17.21
16.18
14.70
12.65
10.07
7.13
4.11
1.25
-1.26
-3.41
-5.37
-7.40
-9.82
-12.84
-16.58
-20.89
-25.42
-29.62
-32.78
-34.20
-33.40
-30.28
-25.21
-18.93
-12.36
-6.18
-0.74
3.99
8.21
12.06
15.47
18.17
19.94
20.74
20.84
20.65
20.55
20.64
20.81
20.78
20.38
19.61
18.67
17.75
16.92
16.09
15.03
13.53
11.50
9.01
6.20
3.30
0.51
-2.00
-4.07
-5.71
-7.06
-8.43
-10.21
-12.71
-16.01
-19.89
-23.89
-27.36
-29.66
-30.28
-28.96
-25.79
-21.09
-15.48
-9.60
-4.03
0.83
4.81
7.91
10.16
11.60
12.30
12.43
12.22
11.98
11.96
12.24
12.76
13.33
13.78
14.05
14.17
14.18
14.07
13.75
13.00
11.65
9.61
6.91
3.74
0.34
-3.02
-6.12
-8.91
-11.48
-14.09
-17.02
-20.51
-24.59
-28.97
-33.04
-36.04
-37.25
-36.22
-32.98
-27.93
-21.76
-15.19
-8.77
-2.84
2.47
7.07
10.86
13.78
15.78
16.93
17.38
17.35
17.05
16.63
16.21
15.86
15.62
15.50
15.48
15.50
15.52
15.48
15.28
14.82
13.98
12.62
10.66
8.13
5.17
2.05
-0.96
-3.70
-6.16
-8.50
-10.98
-13.95
-17.62
-22.06
-27.05
-32.04
-36.22
-38.72
-38.84
-36.34
-31.53
-25.16
-18.21
-11.47
-5.41
-0.06
4.67
8.92
12.65
15.71
17.95
19.31
19.97
20.23
20.41
20.73
21.24
21.81
22.27
22.45
22.23
21.64
20.77
19.75
18.61
17.31
15.71
13.63
10.98
7.80
4.31
0.85
-2.31
-4.93
-7.01
-8.72
-10.33
-12.17
-14.47
-17.41
-21.01
-25.18
-29.59
-33.70
-36.78
-38.09
-37.12
-33.79
-28.50
-22.06
-15.33
-9.02
-3.45
1.40
5.72
9.65
13.19
16.15
18.35
19.75
20.46
20.74
20.82
20.92
21.05
21.19
21.24
21.09
20.65
19.87
18.75
17.33
15.76
14.20
12.77
11.51
10.36
9.18
7.86
6.32
4.56
2.64
0.64
-1.38
-3.43
-5.55
-7.91
-10.68
-14.04
-18.07
-22.65
-27.42
-31.79
-35.03
-36.43
-35.53
-32.29
-27.13
-20.83
-14.30
-8.28
-3.14
1.11
4.73
7.96
10.94
13.61
15.80
17.40
18.38
18.86
18.98
18.86
18.54
18.04
17.37
16.59
15.77
15.00
14.27
13.61
12.94
12.22
11.35
10.26
8.85
7.03
4.85
2.42
-0.05
-2.38
-4.47
-6.37
-8.22
-10.17
-12.38
-14.97
-18.01
-21.46
-25.17
-28.70
-31.41
-32.64
-31.87
-28.97
-24.23
-18.33
-12.04
-6.04
-0.80
3.51
6.88
9.39
11.13
12.25
12.90
13.29
13.63
14.09
14.69
15.37
15.94
16.22
16.12
15.59
14.77
13.80
12.83
11.88
10.84
9.52
7.71
5.31
2.40
-0.71
-3.67
-6.17
-8.11
-9.62
-11.03
-12.82
-15.40
-18.96
-23.34
-27.98
-32.03
-34.54
-34.82
-32.60
-28.19
-22.28
-15.73
-9.26
-3.33
1.89
6.41
10.21
13.24
15.44
16.78
17.36
17.40
17.14
16.81
16.51
16.24
15.90
15.43
14.78
13.99
13.16
12.37
11.64
10.90
9.99
8.71
6.91
4.54
1.73
-1.27
-4.15
-6.68
-8.81
-10.73
-12.78
-15.35
-18.74
-23.00
-27.87
-32.79
-36.98
-39.66
-40.21
-38.38
-34.35
-28.67
-22.07
-15.26
-8.78
-2.93
2.24
6.74
10.68
14.07
16.88
19.02
20.46
21.20
21.37
21.17
20.86
20.63
20.55
20.55
20.48
20.18
19.57
18.69
17.65
16.59
15.54
14.44
13.10
11.34
9.06
6.28
3.26
0.20
-2.66
-5.29
-7.86
-10.67
-14.06
-18.25
-23.24
-28.78
-34.35
-39.26
-42.75
-44.11
-42.90
-39.04
-32.86
-25.10
-16.70
-8.56
-1.37
4.53
9.20
12.92
15.99
18.61
20.78
22.42
23.45
23.93
24.05
24.05
24.10
24.18
24.21
24.03
23.59
22.89
22.01
21.03
19.95
18.72
17.24
15.44
13.27
10.77
8.00
5.09
2.19
-0.52
-2.90
-4.94
-6.78
-8.68
-10.95
-13.80
-17.31
-21.32
-25.53
-29.45
-32.56
-34.32
-34.29
-32.26
-28.32
-22.91
-16.66
-10.24
-4.18
1.21
5.82
9.70
12.84
15.26
17.00
18.09
18.70
19.00
19.18
19.36
19.62
20.00
20.47
20.94
21.24
21.24
20.87
20.13
19.14
17.99
16.67
15.10
13.13
10.67
7.78
4.66
1.55
-1.38
-4.08
-6.66
-9.28
-12.10
-15.21
-18.61
-22.24
-25.97
-29.55
-32.64
-34.78
-35.49
-34.36
-31.26
-26.35
-20.09
-13.17
-6.26
0.12
5.66
10.25
13.90
16.62
18.45
19.44
19.74
19.57
19.20
18.85
18.62
18.49
18.31
17.94
17.27
16.31
15.13
13.86
12.58
11.27
9.76
7.83
5.32
2.29
-0.98
-4.06
-6.60
-8.47
-9.86
-11.26
-13.17
-16.00
-19.85
-24.54
-29.55
-34.23
-37.81
-39.55
-38.90
-35.63
-29.98
-22.62
-14.51
-6.61
0.34
5.98
10.36
13.74
16.46
18.67
20.43
21.71
22.50
22.90
23.10
23.26
23.40
23.45
23.23
22.63
21.63
20.32
18.82
17.28
15.73
14.14
12.43
10.48
8.17
5.47
2.41
-0.86
-4.13
-7.23
-10.04
-12.57
-14.93
-17.27
-19.77
-22.64
-26.02
-29.91
-34.07
-37.85
-40.40
-40.86
-38.75
-34.14
-27.70
-20.34
-12.97
-6.18
-0.18
5.06
9.63
13.57
16.80
19.29
21.00
21.98
22.36
22.27
21.89
21.40
21.01
20.87
21.05
21.46
21.91
22.11
21.78
20.80
19.19
17.11
14.74
12.25
9.67
6.97
4.12
1.14
-1.84
-4.64
-7.12
-9.26
-11.11
-12.86
-14.70
-16.84
-19.47
-22.75
-26.64
-30.91
-35.01
-38.16
-39.56
-38.64
-35.29
-29.87
-23.10
-15.88
-8.93
-2.72
2.59
7.10
10.98
14.38
17.35
19.81
21.70
22.97
23.71
24.08
24.26
24.39
24.50
24.52
24.41
24.13
23.70
23.13
22.40
21.45
20.24
18.79
17.16
15.48
13.83
12.26
10.70
9.03
7.14
4.96
2.52
-0.12
-2.86
-5.60
-8.30
-11.05
-13.97
-17.24
-21.03
-25.39
-30.15
-34.86
-38.83
-41.23
-41.40
-39.04
-34.36
-28.04
-20.94
-13.89
-7.40
-1.64
3.39
7.78
11.47
14.34
16.25
17.22
17.42
17.20
16.92
16.87
17.18
17.74
18.36
18.76
18.77
18.33
17.54
16.57
15.54
14.54
13.50
12.31
10.78
8.83
6.48
3.88
1.23
-1.24
-3.40
-5.27
-6.98
-8.83
-11.10
-14.04
-17.72
-22.00
-26.46
-30.48
-33.34
-34.31
-32.99
-29.26
-23.48
-16.34
-8.70
-1.37
5.03
10.17
14.00
16.59
18.16
18.87
18.87
18.27
17.21
15.88
14.54
13.42
12.70
12.41
12.45
12.65
12.78
12.69
12.31
11.64
10.76
9.74
8.57
7.15
5.34
3.07
0.37
-2.52
-5.26
-7.55
-9.33
-10.82
-12.47
-14.75
-17.97
-22.15
-26.97
-31.92
-36.33
-39.59
-41.13
-40.55
-37.72
-32.82
-26.32
-18.87
-11.25
-4.09
2.17
7.40
11.66
15.13
17.94
20.06
21.40
21.86
21.53
20.75
19.99
19.67
19.96
20.69
21.48
21.95
21.84
21.18
20.12
18.86
17.52
16.05
14.34
12.23
9.64
6.61
3.29
-0.13
-3.38
-6.30
-8.86
-11.20
-13.62
-16.46
-20.01
-24.37
-29.37
-34.54
-39.20
-42.60
-44.04
-43.12
-39.76
-34.31
-27.38
-19.77
-12.25
-5.37
0.62
5.74
10.15
13.99
17.24
19.78
21.43
22.16
22.12
21.65
21.19
21.04
21.33
21.91
22.47
22.70
22.41
21.61
20.46
19.16
17.85
16.50
15.01
13.23
11.06
8.55
5.82
3.00
0.18
-2.61
-5.35
-8.01
-10.59
-13.07
-15.54
-18.21
-21.37
-25.17
-29.56
-34.11
-38.05
-40.49
-40.65
-38.16
-33.21
-26.43
-18.74
-11.02
-3.96
2.08
7.04
11.01
14.20
16.75
18.82
20.51
21.96
23.22
24.29
25.06
25.37
25.10
24.29
23.11
21.82
20.67
19.72
18.98
18.31
17.61
16.75
15.66
14.24
12.39
10.01
7.12
3.92
0.67
-2.31
-4.89
-7.16
-9.35
-11.81
-14.79
-18.43
-22.66
-27.30
-31.97
-36.09
-39.01
-40.05
-38.76
-35.06
-29.40
-22.55
-15.43
-8.80
-3.05
1.71
5.59
8.71
11.12
12.79
13.74
14.13
14.15
14.07
14.07
14.17
14.32
14.41
14.40
14.27
14.06
13.81
13.48
12.98
12.21
11.04
9.35
7.16
4.58
1.80
-0.90
-3.34
-5.52
-7.58
-9.77
-12.36
-15.48
-19.16
-23.28
-27.54
-31.42
-34.25
-35.33
-34.12
-30.53
-24.94
-18.18
-11.19
-4.70
0.95
5.75
9.88
13.44
16.33
18.38
19.44
19.61
19.19
18.61
18.19
18.05
18.05
17.94
17.50
16.69
15.59
14.36
13.10
11.82
10.42
8.73
6.65
4.12
1.22
-1.87
-4.90
-7.64
-9.99
-12.01
-13.98
-16.28
-19.26
-23.11
-27.69
-32.49
-36.76
-39.60
-40.29
-38.46
-34.22
-28.14
-21.08
-13.92
-7.30
-1.49
3.54
7.99
11.99
15.48
18.26
20.08
20.89
20.90
20.51
20.17
20.13
20.38
20.70
20.84
20.68
20.28
19.81
19.42
19.10
18.64
17.78
16.24
13.95
10.99
7.58
4.02
0.58
-2.55
-5.31
-7.73
-9.96
-12.31
-15.10
-18.67
-23.17
-28.42
-33.83
-38.50
-41.44
-41.88
-39.57
-34.78
-28.22
-20.80
-13.34
-6.37
-0.16
5.31
10.16
14.46
18.21
21.29
23.54
24.91
25.46
25.46
25.22
25.02
24.96
25.01
24.99
24.71
24.08
23.10
21.86
20.49
19.11
17.79
16.49
15.10
13.43
11.36
8.85
6.06
3.23
0.61
-1.71
-3.79
-5.84
-8.12
-10.89
-14.30
-18.41
-23.14
-28.19
-33.01
-36.83
-38.80
-38.26
-34.97
-29.27
-21.99
-14.24
-7.00
-0.88
4.02
7.98
11.41
14.59
17.55
20.10
21.98
23.09
23.52
23.57
23.56
23.72
24.04
24.37
24.48
24.16
23.33
22.05
20.44
18.68
16.90
15.21
13.63
12.13
10.60
8.92
7.01
4.82
2.41
-0.11
-2.65
-5.15
-7.63
-10.19
-12.99
-16.22
-20.01
-24.31
-28.91
-33.27
-36.69
-38.42
-37.92
-35.00
-29.96
-23.48
-16.37
-9.38
-2.99
2.60
7.37
11.39
14.66
17.10
18.68
19.49
19.73
19.75
19.90
20.34
21.03
21.77
22.27
22.34
21.93
21.09
19.97
18.65
17.16
15.52
13.68
11.63
9.38
6.96
4.39
1.72
-0.96
-3.54
-5.91
-8.04
-10.02
-12.06
-14.43
-17.35
-20.91
-25.06
-29.61
-34.17
-38.23
-41.14
-42.22
-40.98
-37.26
-31.34
-23.89
-15.84
-8.06
-1.20
4.51
9.11
12.83
15.89
18.40
20.37
21.74
22.53
22.85
22.89
22.85
22.85
22.94
23.05
23.11
23.02
22.75
22.27
21.54
20.56
19.30
17.75
15.88
13.66
11.09
8.19
5.06
1.83
-1.35
-4.32
-7.06
-9.56
-11.95
-14.38
-17.01
-20.05
-23.65
-27.80
-32.33
-36.78
-40.43
-42.49
-42.32
-39.60
-34.55
-27.81
-20.27
-12.76
-5.84
0.28
5.60
10.25
14.27
17.61
20.20
21.99
23.07
23.60
23.81
23.89
23.97
24.07
24.17
24.22
24.13
23.85
23.28
22.36
21.02
19.27
17.17
14.85
12.45
10.08
7.87
5.82
3.97
2.29
0.76
-0.66
-2.04
-3.53
-5.39
-7.84
-11.04
-14.99
-19.54
-24.41
-29.26
-33.72
-37.38
-39.76
-40.29
-38.55
-34.39
-28.14
-20.62
-12.84
-5.72
0.24
5.00
8.83
12.06
14.85
17.13
18.72
19.53
19.64
19.32
18.91
18.65
18.59
18.59
18.53
18.30
17.91
17.44
16.94
16.41
15.74
14.85
13.69
12.33
10.84
9.28
7.60
5.64
3.30
0.55
-2.39
-5.27
-7.83
-9.98
-11.89
-13.84
-16.18
-19.16
-22.85
-27.10
-31.50
-35.41
-38.09
-38.79
-37.06
-32.87
-26.71
-19.48
-12.13
-5.41
0.29
4.99
8.82
11.90
14.19
15.56
15.92
15.41
14.38
13.27
12.51
12.25
12.39
12.65
12.75
12.54
12.05
11.47
11.00
10.75
10.58
10.21
9.31
7.65
5.26
2.35
-0.68
-3.51
-5.95
-8.05
-10.02
-12.20
-14.83
-18.07
-21.88
-26.01
-30.01
-33.29
-35.25
-35.37
-33.40
-29.41
-23.83
-17.32
-10.58
-4.27
1.20
5.66
9.20
12.01
14.30
16.23
17.78
18.91
19.54
19.71
19.54
19.20
18.83
18.49
18.14
17.70
17.16
16.53
15.90
15.32
14.75
14.06
13.08
11.66
9.74
7.40
4.77
2.06
-0.57
-3.03
-5.36
-7.63
-10.00
-12.61
-15.65
-19.23
-23.32
-27.74
-32.03
-35.56
-37.64
-37.71
-35.50
-31.19
-25.33
-18.72
-12.19
-6.34
-1.45
2.54
5.89
8.88
11.66
14.12
16.12
17.51
18.35
18.84
19.30
19.88
20.59
21.25
21.65
21.71
21.49
21.20
20.93
20.62
20.10
19.08
17.47
15.31
12.84
10.29
7.85
5.52
3.27
1.04
-1.17
-3.29
-5.25
-7.12
-9.11
-11.58
-14.86
-19.14
-24.30
-29.82
-34.93
-38.71
-40.41
-39.57
-36.25
-30.93
-24.38
-17.45
-10.83
-4.86
0.42
5.11
9.33
13.04
16.11
18.33
19.65
20.16
20.12
19.83
19.51
19.27
19.13
19.01
18.85
18.63
18.33
17.93
17.41
16.73
15.83
14.65
13.12
11.23
9.02
6.58
4.04
1.53
-0.86
-3.07
-5.10
-7.01
-8.89
-10.93
-13.34
-16.26
-19.77
-23.77
-27.92
-31.74
-34.61
-35.97
-35.41
-32.86
-28.55
-23.02
-16.94
-10.92
-5.39
-0.51
3.74
7.44
10.54
12.96
14.55
15.28
15.31
14.90
14.38
13.89
13.49
13.03
12.39
11.56
10.64
9.78
9.08
8.52
7.93
7.06
5.72
3.79
1.36
-1.31
-3.92
-6.18
-8.00
-9.57
-11.29
-13.61
-16.84
-20.97
-25.60
-30.07
-33.64
-35.63
-35.59
-33.38
-29.19
-23.51
-17.00
-10.37
-4.11
1.52
6.43
10.68
14.26
17.09
19.06
20.13
20.41
20.16
19.68
19.20
18.80
18.45
18.04
17.49
16.76
15.86
14.82
13.69
12.46
11.12
9.59
7.77
5.53
2.83
-0.25
-3.49
-6.59
-9.29
-11.52
-13.45
-15.40
-17.74
-20.70
-24.31
-28.31
-32.24
-35.50
-37.45
-37.59
-35.68
-31.81
-26.47
-20.32
-14.08
-8.21
-2.93
1.81
6.12
10.01
13.34
15.93
17.69
18.69
19.18
19.48
19.83
20.30
20.77
21.02
20.87
20.21
19.09
17.67
16.16
14.74
13.53
12.50
11.57
10.55
9.26
7.55
5.37
2.79
-0.03
-2.93
-5.78
-8.56
-11.37
-14.36
-17.72
-21.59
-25.95
-30.58
-34.98
-38.45
-40.26
-39.86
-37.11
-32.31
-26.11
-19.31
-12.58
-6.29
-0.55
4.67
9.45
13.71
17.31
20.09
22.00
23.16
23.82
24.19
24.45
24.62
24.63
24.36
23.80
22.96
21.89
20.69
19.39
18.00
16.52
14.88
13.04
10.92
8.50
5.85
3.13
0.52
-1.85
-3.91
-5.80
-7.71
-9.84
-12.40
-15.50
-19.16
-23.28
-27.59
-31.56
-34.52
-35.78
-34.88
-31.73
-26.71
-20.49
-13.91
-7.68
-2.22
2.35
6.15
9.34
12.01
14.15
15.64
16.43
16.57
16.31
15.97
15.83
15.98
16.28
16.51
16.49
16.21
15.79
15.37
14.90
14.22
13.03
11.12
8.54
5.55
2.57
-0.05
-2.21
-4.06
-5.93
-8.13
-10.89
-14.25
-18.09
-22.13
-25.93
-29.00
-30.79
-30.82
-28.87
-25.02
-19.72
-13.67
-7.64
-2.22
2.24
5.72
8.29
10.11
11.24
11.71
11.57
11.01
10.29
9.68
9.38
9.45
9.77
10.19
10.55
10.79
10.86
10.75
10.40
9.70
8.56
6.93
4.82
2.37
-0.23
-2.78
-5.15
-7.41
-9.78
-12.59
-16.18
-20.58
-25.50
-30.21
-33.82
-35.44
-34.58
-31.28
-26.10
-19.84
-13.30
-7.08
-1.44
3.56
7.95
11.69
14.68
16.80
18.10
18.79
19.18
19.58
20.10
20.68
21.12
21.19
20.77
19.90
18.70
17.39
16.06
14.75
13.34
11.68
9.57
6.97
3.91
0.57
-2.76
-5.88
-8.69
-11.22
-13.62
-16.15
-19.02
-22.41
-26.35
-30.59
-34.56
-37.50
-38.66
-37.52
-34.05
-28.63
-22.01
-15.00
-8.25
-2.14
3.18
7.77
11.72
15.08
17.91
20.18
21.89
23.08
23.79
24.09
24.03
23.65
22.98
22.10
21.12
20.26
19.70
19.53
19.66
19.83
19.74
19.19
18.13
16.65
14.89
12.87
10.50
7.67
4.31
0.58
-3.21
-6.74
-9.79
-12.32
-14.49
-16.65
-19.19
-22.44
-26.52
-31.30
-36.23
-40.51
-43.21
-43.60
-41.36
-36.70
-30.24
-22.80
-15.15
-7.88
-1.27
4.57
9.62
13.94
17.53
20.43
22.69
24.44
25.80
26.93
27.87
28.60
29.02
29.07
28.81
28.38
27.98
27.68
27.37
26.76
25.56
23.64
21.12
18.35
15.72
13.45
11.55
9.76
7.81
5.51
2.88
0.10
-2.55
-4.91
-6.99
-9.00
-11.28
-14.16
-17.81
-22.19
-27.06
-31.95
-36.33
-39.56
-41.07
-40.45
-37.54
-32.57
-26.07
-18.75
-11.37
-4.47
1.66
6.97
11.54
15.44
18.69
21.23
23.08
24.31
25.12
25.73
26.27
26.77
27.15
27.25
26.97
26.30
25.30
24.13
22.88
21.57
20.18
18.61
16.85
14.94
12.98
11.06
9.19
7.30
5.27
3.04
0.62
-1.87
-4.27
-6.51
-8.63
-10.79
-13.25
-16.28
-19.97
-24.20
-28.54
-32.35
-34.91
-35.63
-34.21
-30.73
-25.59
-19.42
-12.86
-6.50
-0.70
4.35
8.62
12.14
14.94
17.07
18.52
19.35
19.70
19.73
19.60
19.42
19.19
18.87
18.44
17.90
17.29
16.68
16.08
15.46
14.78
13.91
12.77
11.30
9.47
7.33
4.99
2.60
0.29
-1.89
-3.99
-6.13
-8.48
-11.18
-14.29
-17.76
-21.34
-24.63
-27.10
-28.21
-27.60
-25.15
-21.08
-15.83
-10.01
-4.21
1.10
5.63
9.28
12.02
13.91
15.02
15.49
15.44
15.07
14.59
14.17
13.94
13.88
13.94
14.02
14.03
13.93
13.70
13.32
12.72
11.78
10.38
8.47
6.09
3.41
0.65
-1.94
-4.25
-6.28
-8.20
-10.25
-12.70
-15.75
-19.45
-23.62
-27.84
-31.51
-33.88
-34.33
-32.56
-28.73
-23.46
-17.58
-11.88
-6.85
-2.63
0.93
3.98
6.57
8.58
9.90
10.52
10.64
10.55
10.47
10.42
10.29
9.83
8.99
7.81
6.50
5.26
4.17
3.18
2.15
0.96
-0.43
-1.94
-3.42
-4.67
-5.65
-6.40
-7.16
-8.30
-10.18
-13.04
-16.80
-21.09
-25.25
-28.49
-30.14
-29.83
-27.52
-23.57
-18.54
-13.05
-7.66
-2.73
1.51
4.99
7.74
9.86
11.47
12.74
13.80
14.72
15.49
16.07
16.39
16.38
16.08
15.55
14.87
14.13
13.36
12.55
11.60
10.40
8.87
6.94
4.66
2.09
-0.60
-3.25
-5.70
-7.84
-9.62
-11.21
-12.89
-15.05
-18.01
-21.88
-26.40
-30.90
-34.48
-36.27
-35.76
-32.93
-28.29
-22.65
-16.77
-11.18
-6.08
-1.45
2.76
6.52
9.70
12.12
13.75
14.70
15.23
15.63
16.06
16.51
16.83
16.86
16.53
15.90
15.13
14.45
13.97
13.66
13.31
12.63
11.37
9.44
6.91
4.06
1.20
-1.42
-3.70
-5.70
-7.61
-9.69
-12.15
-15.17
-18.79
-22.89
-27.13
-30.91
-33.51
-34.26
-32.80
-29.20
-24.03
-18.12
-12.29
-7.10
-2.73
0.96
4.27
7.45
10.55
13.45
15.87
17.62
18.63
19.02
19.05
18.99
18.98
18.99
18.87
18.44
17.65
16.57
15.42
14.38
13.53
12.77
11.88
10.61
8.86
6.65
4.19
1.70
-0.62
-2.71
-4.64
-6.60
-8.79
-11.39
-14.54
-18.28
-22.55
-27.15
-31.65
-35.48
-37.95
-38.46
-36.67
-32.74
-27.22
-20.98
-14.88
-9.43
-4.75
-0.59
3.38
7.38
11.27
14.76
17.50
19.36
20.46
21.14
21.73
22.38
22.97
23.21
22.83
21.78
20.27
18.69
17.33
16.23
15.13
13.71
11.66
8.97
5.91
2.84
0.10
-2.17
-4.05
-5.73
-7.41
-9.31
-11.56
-14.28
-17.54
-21.26
-25.21
-28.98
-31.96
-33.57
-33.33
-31.00
-26.71
-20.88
-14.15
-7.25
-0.77
4.93
9.72
13.63
16.70
18.92
20.25
20.72
20.49
19.86
19.21
18.78
18.67
18.73
18.75
18.58
18.21
17.81
17.55
17.50
17.53
17.31
16.52
14.96
12.62
9.76
6.72
3.82
1.21
-1.12
-3.35
-5.72
-8.43
-11.62
-15.34
-19.47
-23.72
-27.61
-30.50
-31.83
-31.23
-28.71
-24.59
-19.45
-13.85
-8.26
-2.98
1.83
6.02
9.46
12.07
13.82
14.82
15.26
15.35
15.29
15.17
14.99
14.69
14.20
13.56
12.88
12.35
12.16
12.34
12.71
12.87
12.44
11.14
8.99
6.26
3.37
0.68
-1.63
-3.60
-5.44
-7.42
-9.80
-12.77
-16.34
-20.34
-24.34
-27.72
-29.79
-29.98
-28.08
-24.30
-19.25
-13.64
-8.16
-3.23
0.97
4.44
7.21
9.29
10.72
11.54
11.93
12.09
12.21
12.36
12.47
12.41
12.10
11.59
11.07
10.75
10.71
10.85
10.87
10.43
9.27
7.32
4.66
1.59
-1.61
-4.68
-7.49
-10.05
-12.54
-15.24
-18.39
-22.07
-26.09
-29.95
-32.94
-34.36
-33.73
-31.00
-26.47
-20.73
-14.49
-8.29
-2.57
2.45
6.70
10.18
12.91
14.92
16.23
16.90
17.03
16.73
16.15
15.48
14.87
14.40
14.07
13.87
13.70
13.45
13.05
12.35
11.26
9.68
7.62
5.11
2.27
-0.76
-3.81
-6.75
-9.53
-12.16
-14.77
-17.64
-21.04
-25.20
-30.10
-35.42
-40.51
-44.60
-46.96
-47.22
-45.37
-41.79
-37.11
-31.99
-27.03
-22.63
-18.99
-16.15
-14.01
-12.52
-11.65
-11.48
-12.15
-13.76
-16.27
-19.50
-23.20
-27.16
-31.33
-35.85
-40.90
-46.60
-52.84
-59.38
-65.97
-72.53
-79.21
-86.36
-94.27
-103.07
-112.43
-121.70
-129.98
-136.34
-139.88
-139.78
-135.41
-126.36
-112.56
-94.34
-72.43
-47.84
-21.67
5.07
31.54
57.00
80.73
101.92
119.77
133.60
143.10
148.37
149.98
148.80
145.75
141.57
136.74
131.46
125.77
119.68
113.28
106.72
100.27
94.13
88.50
83.39
78.68
74.21
69.86
65.58
61.35
57.16
52.96
48.63
44.05
39.13
33.84
28.28
22.62
17.06
11.79
6.98
2.66
-1.29
-5.12
-9.21
-13.85
-19.21
-25.04
-30.73
-35.44
-38.26
-38.60
-36.31
-31.75
-25.63
-18.76
-11.86
-5.36
0.52
5.76
10.39
14.39
17.71
20.30
22.14
23.33
24.03
24.43
24.74
25.02
25.30
25.49
25.51
25.28
24.79
24.08
23.14
21.97
20.48
18.62
16.32
13.59
10.47
7.06
3.53
0.09
-3.02
-5.62
-7.66
-9.29
-10.81
-12.59
-14.95
-18.00
-21.63
-25.47
-29.01
-31.62
-32.75
-31.97
-29.16
-24.55
-18.70
-12.35
-6.20
-0.74
3.83
7.50
10.38
12.52
13.92
14.57
14.60
14.25
13.83
13.60
13.65
13.92
14.24
14.46
14.55
14.55
14.47
14.27
13.79
12.85
11.33
9.26
6.78
4.08
1.38
-1.18
-3.54
-5.67
-7.65
-9.60
-11.70
-14.22
-17.37
-21.15
-25.27
-29.07
-31.70
-32.43
-30.87
-27.14
-21.80
-15.60
-9.24
-3.18
2.32
7.09
10.98
13.84
15.60
16.35
16.43
16.24
16.12
16.21
16.44
16.63
16.60
16.30
15.82
15.31
14.89
14.54
14.15
13.46
12.27
10.41
7.89
4.85
1.55
-1.73
-4.76
-7.41
-9.77
-12.02
-14.43
-17.29
-20.78
-24.92
-29.44
-33.73
-37.00
-38.41
-37.41
-33.93
-28.44
-21.76
-14.81
-8.26
-2.47
2.58
7.01
10.90
14.22
16.81
18.52
19.33
19.40
18.99
18.38
17.78
17.23
16.68
16.10
15.50
15.02
14.79
14.89
15.20
15.43
15.20
14.13
12.08
9.10
5.48
1.66
-1.96
-5.10
-7.75
-10.19
-12.82
-16.08
-20.25
-25.26
-30.68
-35.79
-39.67
-41.55
-40.92
-37.75
-32.43
-25.64
-18.15
-10.63
-3.59
2.66
7.94
12.20
15.50
18.00
19.89
21.36
22.54
23.48
24.17
24.59
24.76
24.68
24.33
23.68
22.69
21.39
19.92
18.39
16.87
15.27
13.35
10.88
7.78
4.22
0.55
-2.79
-5.53
-7.58
-9.15
-10.58
-12.28
-14.60
-17.79
-21.89
-26.69
-31.64
-35.96
-38.74
-39.22
-37.03
-32.33
-25.72
-18.14
-10.48
-3.45
2.59
7.59
11.60
14.75
17.11
18.73
19.69
20.16
20.35
20.50
20.75
21.09
21.42
21.56
21.37
20.81
19.92
18.82
17.66
16.46
15.19
13.65
11.68
9.18
6.24
3.11
0.13
-2.44
-4.58
-6.51
-8.63
-11.36
-14.94
-19.29
-24.12
-28.91
-33.09
-36.05
-37.22
-36.21
-32.90
-27.52
-20.66
-13.15
-5.81
0.77
6.29
10.75
14.25
16.92
18.82
19.95
20.36
20.23
19.82
19.40
19.13
19.01
18.89
18.61
18.07
17.35
16.61
16.00
15.54
15.05
14.32
13.11
11.31
8.98
6.26
3.34
0.38
-2.57
-5.53
-8.64
-12.12
-16.13
-20.66
-25.45
-29.94
-33.44
-35.25
-34.91
-32.29
-27.64
-21.49
-14.49
-7.33
-0.64
5.10
9.62
12.80
14.73
15.59
15.68
15.29
14.66
13.96
13.28
12.64
12.08
11.59
11.23
11.02
10.98
10.96
10.78
10.22
9.14
7.54
5.56
3.45
1.31
-0.84
-3.15
-5.84
-9.09
-12.99
-17.48
-22.35
-27.29
-31.83
-35.40
-37.38
-37.21
-34.61
-29.70
-23.06
-15.58
-8.24
-1.85
3.18
6.88
9.57
11.64
13.33
14.69
15.57
15.85
15.55
14.91
14.21
13.70
13.43
13.31
13.13
12.70
11.94
10.87
9.50
7.86
5.92
3.70
1.28
-1.17
-3.49
-5.59
-7.57
-9.73
-12.50
-16.28
-21.20
-26.98
-32.92
-37.98
-41.12
-41.57
-39.10
-34.07
-27.33
-19.89
-12.63
-6.07
-0.34
4.63
9.01
12.85
16.01
18.38
19.87
20.64
20.96
21.16
21.42
21.74
21.94
21.78
21.12
20.05
18.78
17.61
16.71
16.03
15.27
14.04
12.04
9.20
5.74
2.03
-1.56
-4.79
-7.68
-10.44
-13.39
-16.86
-21.03
-25.85
-30.98
-35.82
-39.62
-41.61
-41.29
-38.48
-33.45
-26.77
-19.22
-11.55
-4.36
2.02
7.54
12.32
16.49
20.03
22.85
24.78
25.77
25.98
25.76
25.52
25.60
26.02
26.63
27.07
27.07
26.47
25.35
23.89
22.34
20.87
19.52
18.15
16.54
14.41
11.62
8.20
4.32
0.32
-3.53
-7.07
-10.29
-13.34
-16.46
-19.93
-23.92
-28.51
-33.52
-38.44
-42.52
-44.84
-44.65
-41.61
-35.99
-28.53
-20.25
-12.08
-4.63
1.90
7.60
12.67
17.20
21.13
24.31
26.57
27.91
28.46
28.48
28.28
28.05
27.88
27.72
27.44
26.91
26.06
24.94
23.70
22.48
21.37
20.33
19.20
17.78
15.91
13.56
10.83
7.87
4.85
1.82
-1.25
-4.39
-7.63
-11.01
-14.52
-18.26
-22.33
-26.81
-31.57
-36.17
-39.93
-42.06
-41.93
-39.25
-34.22
-27.45
-19.76
-12.00
-4.77
1.53
6.73
10.82
13.83
15.77
16.77
17.01
16.77
16.36
16.00
15.78
15.62
15.37
14.94
14.34
13.74
13.23
12.80
12.21
11.16
9.43
6.99
4.09
1.11
-1.60
-3.89
-5.85
-7.75
-9.93
-12.69
-16.25
-20.60
-25.50
-30.44
-34.60
-37.07
-37.13
-34.45
-29.29
-22.38
-14.64
-6.95
0.12
6.18
11.10
14.79
17.25
18.53
18.85
18.46
17.68
16.72
15.70
14.65
13.60
12.62
11.82
11.26
10.94
10.69
10.27
9.38
7.80
5.48
2.59
-0.57
-3.67
-6.48
-8.98
-11.29
-13.73
-16.64
-20.33
-24.87
-30.02
-35.12
-39.19
-41.20
-40.41
-36.68
-30.52
-22.94
-15.04
-7.72
-1.39
3.94
8.46
12.39
15.81
18.67
20.86
22.36
23.20
23.51
23.47
23.16
22.67
22.06
21.43
20.83
20.39
20.10
19.84
19.31
18.16
16.10
13.03
9.12
4.75
0.39
-3.59
-6.98
-9.85
-12.50
-15.37
-18.89
-23.35
-28.70
-34.47
-39.80
-43.68
-45.21
-43.89
-39.82
-33.60
-26.19
-18.47
-11.09
-4.33
1.78
7.32
12.30
16.65
20.22
22.91
24.71
25.71
26.12
26.14
25.94
25.57
24.95
23.98
22.58
20.83
18.96
17.30
16.08
15.27
14.61
13.68
12.16
9.95
7.24
4.34
1.56
-0.97
-3.29
-5.56
-8.03
-10.95
-14.59
-19.11
-24.42
-30.10
-35.36
-39.22
-40.81
-39.70
-36.01
-30.37
-23.64
-16.56
-9.59
-2.90
3.49
9.52
14.97
19.57
23.12
25.58
27.09
27.88
28.17
28.10
27.77
27.25
26.67
26.09
25.59
25.10
24.52
23.71
22.55
20.99
19.03
16.71
14.13
11.36
8.48
5.58
2.70
-0.09
-2.77
-5.32
-7.81
-10.36
-13.20
-16.52
-20.40
-24.63
-28.70
-31.88
-33.41
-32.78
-29.90
-25.11
-19.04
-12.48
-6.02
-0.04
5.38
10.23
14.50
18.06
20.72
22.29
22.80
22.49
21.75
21.03
20.58
20.38
20.16
19.60
18.52
16.98
15.20
13.42
11.76
10.14
8.37
6.32
3.98
1.51
-0.81
-2.78
-4.36
-5.69
-7.02
-8.65
-10.83
-13.67
-17.21
-21.28
-25.46
-29.18
-31.69
-32.31
-30.68
-26.84
-21.33
-14.96
-8.60
-2.87
1.96
5.89
9.05
11.51
13.26
14.25
14.51
14.17
13.44
12.57
11.76
11.15
10.80
10.72
10.84
11.06
11.21
11.11
10.59
9.51
7.84
5.63
3.00
0.16
-2.70
-5.44
-8.02
-10.59
-13.46
-16.94
-21.19
-26.01
-30.85
-34.85
-37.10
-36.91
-34.04
-28.76
-21.76
-13.95
-6.20
0.85
6.86
11.75
15.62
18.63
20.91
22.55
23.59
24.02
23.82
23.00
21.66
19.97
18.21
16.65
15.44
14.59
13.93
13.18
12.09
10.46
8.26
5.57
2.53
-0.66
-3.80
-6.74
-9.41
-11.86
-14.29
-17.01
-20.30
-24.34
-29.00
-33.77
-37.84
-40.28
-40.30
-37.57
-32.30
-25.23
-17.35
-9.60
-2.60
3.36
8.33
12.46
15.88
18.65
20.79
22.31
23.30
23.90
24.27
24.55
24.75
24.80
24.57
23.98
23.03
21.81
20.46
19.04
17.56
15.87
13.79
11.17
7.98
4.35
0.59
-2.94
-5.92
-8.25
-10.05
-11.65
-13.49
-15.98
-19.29
-23.30
-27.57
-31.46
-34.24
-35.32
-34.36
-31.36
-26.69
-20.93
-14.80
-8.90
-3.65
0.85
4.66
7.98
10.97
13.63
15.90
17.62
18.73
19.32
19.59
19.77
20.02
20.31
20.45
20.30
19.76
18.94
18.07
17.33
16.79
16.33
15.70
14.62
12.94
10.64
7.85
4.73
1.45
-1.83
-5.02
-8.05
-10.92
-13.74
-16.71
-20.03
-23.79
-27.82
-31.63
-34.50
-35.77
-35.01
-32.21
-27.80
-22.44
-16.80
-11.34
-6.28
-1.63
2.60
6.37
9.52
11.88
13.37
14.09
14.31
14.34
14.42
14.64
14.93
15.15
15.16
14.91
14.41
13.72
12.84
11.77
10.40
8.67
6.57
4.12
1.48
-1.18
-3.69
-5.91
-7.79
-9.40
-10.92
-12.63
-14.80
-17.59
-20.86
-24.22
-27.00
-28.49
-28.20
-26.03
-22.28
-17.53
-12.42
-7.38
-2.64
1.76
5.77
9.19
11.74
13.20
13.53
13.01
12.05
11.11
10.44
10.07
9.90
9.81
9.77
9.81
9.92
9.98
9.78
9.06
7.70
5.76
3.35
0.68
-2.08
-4.82
-7.43
-9.82
-11.97
-14.00
-16.11
-18.60
-21.68
-25.32
-29.17
-32.54
-34.64
-34.78
-32.69
-28.52
-22.95
-16.78
-10.80
-5.46
-0.89
3.03
6.45
9.42
11.85
13.63
14.71
15.17
15.18
14.98
14.69
14.39
14.04
13.60
13.08
12.54
12.06
11.65
11.26
10.72
9.86
8.48
6.52
4.08
1.36
-1.35
-3.79
-5.85
-7.56
-9.16
-10.99
-13.40
-16.63
-20.65
-25.09
-29.29
-32.42
-33.73
-32.73
-29.44
-24.34
-18.27
-12.09
-6.51
-1.81
2.03
5.27
8.13
10.67
12.78
14.33
15.26
15.68
15.83
15.94
16.05
16.05
15.74
15.01
13.96
12.84
11.90
11.26
10.78
10.19
9.19
7.67
5.70
3.53
1.43
-0.41
-1.91
-3.13
-4.20
-5.37
-6.90
-9.09
-12.17
-16.19
-20.91
-25.76
-29.98
-32.75
-33.48
-31.92
-28.27
-23.10
-17.15
-11.17
-5.65
-0.80
3.41
7.12
10.40
13.23
15.45
17.01
17.93
18.36
18.45
18.34
18.03
17.45
16.58
15.43
14.19
13.03
12.10
11.37
10.69
9.81
8.50
6.66
4.37
1.89
-0.46
-2.48
-4.14
-5.65
-7.30
-9.43
-12.21
-15.69
-19.61
-23.56
-26.95
-29.13
-29.62
-28.17
-24.94
-20.44
-15.45
-10.72
-6.82
-3.90
-1.78
-0.12
1.46
3.16
4.92
6.55
7.82
8.62
9.06
9.37
9.81
10.46
11.28
12.08
12.65
12.82
12.55
11.86
10.80
9.42
7.72
5.76
3.58
1.25
-1.24
-3.91
-6.84
-10.11
-13.62
-17.14
-20.27
-22.50
-23.38
-22.59
-20.11
-16.23
-11.46
-6.42
-1.69
2.34
5.52
7.92
9.68
10.94
11.77
12.19
12.27
12.08
11.75
11.38
11.03
10.67
10.23
9.66
8.94
8.03
6.84
5.31
3.43
1.27
-0.95
-3.05
-4.90
-6.58
-8.33
-10.45
-13.19
-16.63
-20.67
-25.01
-29.19
-32.56
-34.45
-34.32
-31.97
-27.66
-22.06
-16.01
-10.27
-5.25
-0.97
2.77
6.25
9.62
12.82
15.67
17.93
19.44
20.23
20.46
