1523167526.00
64.000000
-0.00
-0.00
-0.00
-0.00
-0.00
-0.00
-0.00
-0.00
-0.00
-0.00
0.00
0.01
0.01
-0.00
-0.03
-0.05
-0.05
0.00
0.13
0.36
0.66
1.01
1.37
1.72
2.06
2.40
2.79
3.24
3.80
4.42
5.06
5.66
6.20
6.68
7.15
7.68
8.31
9.14
10.09
11.04
11.88
12.56
13.14
13.76
14.65
15.96
17.91
20.32
22.90
25.38
27.58
29.57
31.68
34.32
37.81
42.54
48.15
54.10
59.83
64.97
69.58
74.14
79.34
85.71
93.76
103.00
112.62
121.73
129.77
136.75
143.30
150.75
157.77
166.64
177.95
191.79
206.97
220.57
228.25
225.36
208.53
176.87
132.76
80.05
23.07
-34.94
-92.44
-149.16
-205.23
-260.37
-313.74
-363.87
-409.83
-450.91
-486.50
-515.74
-537.23
-549.22
-549.96
-538.37
-514.21
-478.67
-433.88
-382.45
-327.02
-269.84
-212.63
-156.66
-102.95
-52.37
-5.90
35.58
71.43
101.35
125.50
144.38
158.69
169.15
176.37
180.75
182.57
182.07
179.51
175.23
169.65
163.18
156.15
148.81
141.30
133.69
126.02
118.33
110.69
103.16
95.80
88.68
81.83
75.24
68.95
62.95
57.25
51.87
46.80
42.06
37.63
33.52
29.70
26.19
22.96
20.02
17.35
14.95
12.81
10.92
9.26
7.83
6.61
5.57
4.70
3.98
3.40
2.93
2.57
2.30
2.11
1.99
1.92
1.91
1.94
2.01
2.13
2.27
2.46
2.67
2.92
3.20
3.51
3.86
4.25
4.67
5.13
5.64
6.18
6.76
7.40
8.07
8.80
9.57
10.39
11.26
12.18
13.16
14.17
15.25
16.40
17.61
18.90
20.24
21.64
23.05
24.40
25.62
26.61
27.24
27.36
26.86
25.66
23.67
20.91
17.42
13.28
8.68
3.81
-1.09
-5.80
-10.11
-13.83
-16.83
-19.02
-20.41
-20.99
-20.88
-20.16
-18.98
-17.44
-15.67
-13.75
-11.76
-9.72
-7.64
-5.56
-3.50
-1.44
0.61
2.68
4.80
6.99
9.28
11.77
14.36
17.05
19.81
22.63
25.47
28.36
31.32
34.43
37.85
41.47
45.28
49.26
53.42
57.71
62.14
66.76
71.65
77.03
82.69
88.54
94.50
100.50
106.43
112.22
117.86
123.48
129.32
135.12
140.69
145.78
149.92
152.50
152.78
149.85
142.56
133.46
123.53
113.37
103.22
92.90
82.00
70.12
57.08
43.21
29.24
15.55
2.53
-9.82
-21.96
-34.69
-48.78
-64.56
-81.70
-99.22
-116.37
-132.47
-147.33
-161.40
-175.61
-191.15
-209.24
-230.77
-255.82
-283.36
-310.60
-333.34
-347.02
-348.24
-336.07
-312.38
-281.18
-247.05
-213.83
-183.73
-157.60
-135.66
-118.21
-105.63
-97.99
-94.55
-93.61
-93.10
-91.34
-87.70
-82.82
-78.36
-76.30
-78.27
-84.83
-95.08
-106.43
-114.95
-116.17
-106.42
-84.07
-50.39
-9.34
33.54
72.78
104.43
126.77
140.07
145.73
145.36
140.23
131.29
119.49
106.11
92.77
81.23
72.90
68.40
67.38
68.72
70.97
72.82
73.59
73.17
71.92
70.18
67.97
64.81
59.98
52.81
43.01
30.97
17.62
4.25
-7.92
-18.13
-26.27
-32.93
-39.20
-46.49
-56.03
-68.62
-84.01
-100.60
-115.32
-124.09
-122.97
-109.42
-83.43
-47.77
-7.37
32.14
65.92
91.03
106.64
113.56
113.49
108.35
99.86
89.56
78.78
68.73
60.33
54.19
50.49
49.08
49.53
51.30
53.88
56.75
59.45
61.45
62.23
61.28
58.24
53.05
45.97
37.60
28.60
19.53
10.60
1.69
-7.50
-17.23
-27.40
-37.55
-46.94
-54.96
-61.39
-66.65
-71.78
-78.23
-87.29
-99.45
-113.77
-127.55
-136.77
-137.10
-125.43
-101.11
-66.50
-26.37
13.52
48.13
74.31
91.11
99.35
100.69
96.93
89.64
80.20
69.99
60.39
52.66
47.62
45.50
45.88
48.03
51.10
54.48
57.87
61.16
64.24
66.69
67.83
66.77
62.80
55.74
46.15
35.24
24.50
15.06
7.34
0.87
-5.40
-12.51
-21.02
-30.66
-40.58
-49.72
-57.25
-62.95
-67.26
-71.21
-76.21
-83.66
-94.44
-108.26
-123.19
-135.65
-141.22
-136.00
-118.12
-88.56
-51.11
-11.17
25.86
56.05
77.54
90.41
95.92
95.67
91.19
83.75
74.56
64.90
56.06
49.19
45.12
44.12
45.89
49.67
54.44
59.25
63.33
66.32
68.09
68.62
67.85
65.58
61.55
55.62
47.91
38.84
29.09
19.47
10.67
3.15
-3.02
-8.22
-13.16
-18.66
-25.34
-33.30
-42.08
-50.78
-58.48
-64.64
-69.32
-73.22
-77.45
-83.24
-91.65
-103.21
-117.45
-132.58
-145.40
-151.80
-147.87
-131.32
-102.51
-64.69
-23.09
16.62
49.89
74.24
89.36
96.45
97.36
93.90
87.60
79.64
71.15
63.16
56.64
52.38
50.82
51.94
55.23
59.84
64.74
69.03
72.14
73.87
74.26
73.40
71.27
67.64
62.29
55.10
46.26
36.34
26.15
16.53
8.12
1.18
-4.50
-9.54
-14.76
-20.87
-28.23
-36.66
-45.52
-53.87
-60.92
-66.31
-70.26
-73.55
-77.33
-82.83
-91.07
-102.47
-116.43
-130.89
-142.40
-146.77
-140.26
-121.02
-90.01
-51.01
-9.52
28.84
59.92
81.76
94.45
99.43
98.53
93.41
85.40
75.66
65.34
55.65
47.77
42.62
40.63
41.68
45.09
49.84
54.88
59.35
62.79
65.04
66.11
65.98
64.44
61.22
56.07
49.02
40.49
31.21
22.09
13.85
6.86
1.02
-4.16
-9.35
-15.16
-21.90
-29.54
-37.68
-45.67
-52.83
-58.69
-63.20
-66.82
-70.47
-75.31
-82.45
-92.56
-105.42
-119.61
-132.39
-140.17
-139.33
-127.43
-104.21
-71.95
-34.98
1.60
33.29
57.26
72.58
79.83
80.31
75.41
66.39
54.40
40.79
27.18
15.34
6.93
3.02
3.80
8.51
15.62
23.30
29.98
34.74
37.35
38.03
36.98
34.10
29.00
21.25
10.89
-1.40
-14.39
-26.73
-37.58
-46.83
-55.18
-63.62
-72.95
-83.26
-93.81
-103.21
-109.85
-112.52
-110.83
-105.42
-97.82
-89.98
-83.59
-79.31
-76.34
-72.34
-64.14
-48.78
-24.65
7.92
46.77
88.67
130.43
169.71
205.28
236.97
265.18
290.59
313.88
335.57
355.66
373.38
386.90
393.61
390.73
376.15
348.97
309.51
259.00
199.15
132.32
61.95
-6.95
-68.22
-115.98
-146.72
-160.79
-162.62
-158.95
-156.23
-158.21
-165.06
-174.24
-182.50
-187.71
-189.62
-189.42
-188.57
-187.91
-187.33
-186.24
-184.16
-181.14
-177.70
-174.55
-172.19
-170.76
-170.26
-170.83
-173.03
-177.56
-184.66
-193.31
-200.75
-202.94
-195.69
-176.25
-144.57
-103.55
-58.25
-14.36
23.41
52.31
71.70
82.54
86.55
85.57
81.20
74.80
67.58
60.64
55.04
51.57
50.72
52.53
56.70
62.65
69.66
76.98
83.90
89.69
93.65
95.19
93.94
89.96
83.70
75.92
67.46
58.94
50.67
42.57
34.41
26.04
17.58
9.39
1.86
-4.81
-10.85
-16.86
-23.53
-31.29
-40.03
-49.14
-57.73
-65.11
-71.10
-76.19
-81.44
-88.22
-97.82
-110.91
-126.96
-143.83
-157.74
-164.07
-158.67
-139.37
-107.03
-65.49
-20.49
22.05
57.58
83.79
100.48
108.77
110.26
106.41
98.49
87.75
75.64
63.89
54.19
47.87
45.51
46.80
50.77
56.15
61.87
67.34
72.36
76.91
80.71
83.08
83.09
79.89
73.25
63.70
52.55
41.36
31.44
23.33
16.63
10.22
2.84
-6.33
-17.27
-29.05
-40.25
-49.52
-56.19
-60.56
-63.79
-67.56
-73.48
-82.61
-94.93
-109.16
-122.62
-131.75
-132.78
-122.92
-101.29
-69.47
-31.19
8.58
44.98
74.43
95.14
107.07
111.23
109.06
102.00
91.32
78.33
64.46
51.31
40.44
33.09
29.90
30.79
35.07
41.63
49.17
56.45
62.40
66.14
67.09
64.98
59.94
52.47
43.33
33.33
23.15
13.13
3.23
-6.76
-17.08
-27.79
-38.68
-49.30
-59.17
-68.02
-75.98
-83.77
-92.59
-103.69
-117.64
-133.56
-148.70
-158.77
-159.14
-146.50
-120.22
-82.92
-39.73
3.31
40.99
70.15
89.89
100.98
104.90
103.19
97.10
87.75
76.37
64.33
53.18
44.32
38.75
36.86
38.32
42.22
47.25
52.10
55.77
57.75
58.02
56.84
54.40
50.67
45.37
38.09
28.63
17.15
4.24
-9.15
-22.00
-33.53
-43.33
-51.54
-58.69
-65.64
-73.43
-83.09
-95.26
-109.83
-125.36
-138.96
-146.62
-144.31
-129.36
-101.72
-64.29
-22.25
18.52
53.12
78.75
94.91
102.78
104.22
101.03
94.57
85.89
75.97
65.92
56.91
50.04
46.04
45.06
46.66
49.95
53.84
57.29
59.57
60.34
59.53
57.28
53.68
48.77
42.45
34.57
25.12
14.30
2.61
-9.27
-20.61
-30.84
-39.77
-47.56
-54.75
-62.11
-70.53
-80.90
-93.80
-109.00
-124.98
-138.76
-146.36
-143.84
-128.79
-101.38
-64.64
-23.68
15.83
49.16
73.62
88.67
95.37
95.54
90.98
83.15
73.23
62.35
51.71
42.67
36.38
33.55
34.13
37.36
41.97
46.61
50.24
52.33
52.78
51.79
49.56
46.15
41.38
34.92
26.56
16.29
4.54
-7.84
-19.77
-30.28
-38.82
-45.45
-50.89
-56.28
-62.88
-71.78
-83.52
-97.77
-112.97
-126.31
-134.08
-132.65
-119.67
-95.12
-61.66
-23.94
12.72
43.86
66.91
81.36
88.14
88.70
84.40
76.26
65.24
52.60
40.08
29.68
23.06
21.06
23.33
28.52
34.83
40.64
45.04
47.85
49.36
49.77
48.92
46.17
40.77
32.31
21.05
8.08
-5.03
-16.72
-25.99
-32.70
-37.65
-42.24
-48.01
-56.21
-67.38
-81.09
-95.71
-108.49
-115.97
-114.77
-102.64
-79.44
-47.43
-10.87
25.20
56.32
79.67
94.39
101.19
101.56
97.09
89.15
78.92
67.63
56.68
47.50
41.24
38.46
38.94
41.84
46.02
50.48
54.53
57.74
59.77
60.17
58.36
53.86
46.61
37.15
26.52
15.94
6.31
-2.11
-9.71
-17.32
-25.69
-35.08
-45.11
-54.89
-63.47
-70.26
-75.44
-79.94
-85.24
-92.85
-103.71
-117.63
-132.79
-145.83
-152.53
-148.94
-132.83
-104.64
-67.67
-27.14
11.33
43.31
66.60
81.26
88.96
91.83
91.67
89.60
86.15
81.72
76.91
72.53
69.46
68.24
68.88
70.86
73.37
75.71
77.48
78.64
79.31
79.47
78.90
77.13
73.68
68.29
61.10
52.69
43.93
35.78
28.94
23.66
19.66
16.20
12.38
7.48
1.29
-5.78
-12.88
-19.06
-23.71
-26.90
-29.38
-32.32
-36.79
-43.31
-51.56
-60.57
-69.10
-76.18
-81.48
-85.45
-89.22
-94.22
-101.87
-112.99
-127.35
-143.15
-157.05
-164.75
-162.12
-146.69
-118.72
-81.43
-40.09
-0.46
32.85
57.40
73.01
81.15
83.92
83.34
80.92
77.69
74.38
71.55
69.64
68.90
69.31
70.56
72.18
73.65
74.70
75.27
75.57
75.85
76.13
76.14
75.29
72.91
68.55
62.24
54.46
46.05
37.94
30.82
25.00
20.28
16.12
11.82
6.85
1.06
-5.25
-11.38
-16.56
-20.26
-22.54
-24.06
-25.91
-29.12
-34.31
-41.32
-49.32
-57.12
-63.69
-68.55
-72.01
-75.03
-78.88
-84.79
-93.51
-104.92
-117.75
-129.55
-137.00
-136.65
-126.09
-104.84
-74.80
-39.88
-4.96
25.51
48.63
63.48
70.87
72.64
70.80
66.98
62.29
57.34
52.59
48.44
45.33
43.63
43.49
44.79
47.16
50.10
53.16
55.99
58.37
60.06
60.76
60.12
57.79
53.64
47.84
40.95
33.70
26.80
20.65
15.29
10.37
5.45
0.22
-5.29
-10.71
-15.57
-19.48
-22.48
-25.00
-27.71
-31.21
-35.77
-41.20
-46.93
-52.31
-56.91
-60.70
-64.16
-68.15
-73.67
-81.44
-91.42
-102.43
-112.06
-117.14
-114.73
-103.12
-82.64
-55.70
-26.07
2.30
26.32
44.35
56.16
62.45
64.31
62.89
59.22
54.25
48.89
43.96
40.08
37.57
36.54
36.78
38.00
39.86
42.13
44.66
47.38
50.07
52.29
53.40
52.74
49.88
44.90
38.43
31.42
24.82
19.22
14.69
10.89
7.29
3.46
-0.79
-5.39
-10.13
-14.73
-18.99
-22.84
-26.34
-29.70
-33.21
-37.12
-41.53
-46.33
-51.18
-55.73
-59.72
-63.22
-66.67
-70.87
-76.71
-84.74
-94.66
-104.99
-113.17
-116.14
-111.30
-97.53
-75.74
-48.64
-20.02
6.43
28.05
43.61
53.25
57.91
58.89
57.40
54.48
50.92
47.32
44.13
41.70
40.23
39.80
40.30
41.55
43.28
45.24
47.23
49.16
50.89
52.21
52.72
51.97
49.62
45.59
40.24
34.24
28.33
23.04
18.52
14.53
10.59
6.30
1.53
-3.56
-8.53
-12.95
-16.59
-19.58
-22.32
-25.38
-29.23
-34.02
-39.54
-45.25
-50.54
-54.94
-58.33
-61.08
-64.01
-68.13
-74.24
-82.59
-92.41
-101.87
-108.38
-109.25
-102.54
-87.73
-66.11
-40.37
-13.89
10.15
29.55
43.36
51.77
55.65
56.11
54.18
50.69
46.32
41.64
37.22
33.55
31.06
29.95
30.21
31.65
33.94
36.75
39.74
42.60
44.96
46.46
46.72
45.50
42.78
38.83
34.16
29.30
24.67
20.37
16.27
12.08
7.55
2.69
-2.32
-7.15
-11.55
-15.48
-19.13
-22.84
-26.89
-31.32
-35.91
-40.27
-44.01
-46.96
-49.28
-51.51
-54.40
-58.74
-64.99
-73.02
-81.89
-89.79
-94.42
-93.58
-85.85
-71.17
-50.98
-27.88
-4.85
15.45
31.30
42.03
47.82
49.38
47.58
43.23
37.14
30.12
23.07
16.95
12.59
10.50
10.70
12.78
16.04
19.78
23.54
27.12
30.47
33.43
35.60
36.38
35.20
31.76
26.32
19.64
12.76
6.63
1.78
-1.88
-4.97
-8.32
-12.67
-18.25
-24.74
-31.42
-37.46
-42.32
-45.91
-48.66
-51.38
-55.03
-60.45
-68.05
-77.46
-87.38
-95.64
-99.60
-96.95
-86.42
-68.41
-44.93
-19.18
5.49
26.36
41.89
51.82
56.79
57.87
56.13
52.46
47.55
42.06
36.62
31.95
28.62
27.01
27.10
28.61
31.02
33.90
36.93
40.00
42.97
45.54
47.18
47.23
45.11
40.64
34.12
26.29
18.10
10.41
3.80
-1.66
-6.29
-10.75
-15.71
-21.64
-28.59
-36.10
-43.38
-49.62
-54.32
-57.58
-60.10
-63.03
-67.59
-74.65
-84.32
-95.60
-106.36
-113.71
-114.67
-107.11
-90.52
-66.37
-37.78
-8.65
17.47
38.12
52.38
60.59
63.90
63.69
61.20
57.37
52.85
48.15
43.72
40.04
37.54
36.55
37.19
39.28
42.38
45.92
49.37
52.35
54.66
56.19
56.77
56.12
53.86
49.73
43.70
36.13
27.70
19.29
11.64
5.19
-0.12
-4.72
-9.28
-14.42
-20.47
-27.41
-34.87
-42.27
-49.03
-54.76
-59.44
-63.39
-67.36
-72.35
-79.36
-88.86
-100.29
-111.78
-120.28
-122.30
-115.13
-97.81
-71.71
-40.22
-7.70
21.80
45.51
62.28
72.36
76.79
76.84
73.71
68.46
62.05
55.38
49.30
44.49
41.45
40.39
41.21
43.51
46.70
50.16
53.34
55.93
57.80
58.90
59.14
58.33
56.15
52.36
46.94
40.18
32.61
24.90
17.63
11.11
5.36
0.12
-4.99
-10.37
-16.30
-22.84
-29.80
-36.84
-43.52
-49.45
-54.48
-58.68
-62.47
-66.56
-71.83
-79.11
-88.77
-100.24
-111.77
-120.47
-123.02
-116.67
-100.24
-74.76
-43.28
-10.01
20.87
46.25
64.58
75.79
80.74
80.65
76.73
70.08
61.76
52.90
44.65
38.03
33.74
31.98
32.47
34.57
37.64
41.18
44.94
48.81
52.56
55.74
57.59
57.35
54.47
48.97
41.49
33.06
24.83
17.60
11.65
6.67
1.95
-3.26
-9.45
-16.63
-24.30
-31.66
-37.97
-42.88
-46.65
-50.09
-54.30
-60.38
-68.92
-79.71
-91.40
-101.69
-107.61
-106.36
-96.14
-76.89
-50.49
-20.34
9.59
35.77
55.92
69.24
76.06
77.41
74.45
68.30
59.92
50.32
40.53
31.63
24.61
20.13
18.49
19.55
22.84
27.67
33.26
38.76
43.32
46.16
46.60
44.30
39.35
32.35
24.19
15.81
7.85
0.48
-6.52
-13.57
-20.91
-28.51
-36.02
-43.00
-49.16
-54.58
-59.71
-65.33
-72.37
-81.56
-93.02
-105.87
-117.93
-126.07
-126.89
-117.91
-98.52
-70.47
-37.42
-3.92
25.89
49.27
65.19
74.06
77.08
75.66
71.06
64.37
56.55
48.58
41.37
35.66
31.93
30.32
30.67
32.69
36.01
40.29
45.08
49.79
53.62
55.67
55.16
51.72
45.60
37.59
28.81
20.27
12.48
5.30
-1.85
-9.67
-18.48
-28.01
-37.47
-45.95
-52.82
-58.08
-62.42
-67.09
-73.47
-82.58
-94.61
-108.35
-121.19
-129.47
-129.45
-118.57
-96.46
-65.37
-29.54
6.02
37.01
60.72
76.39
84.67
86.99
84.89
79.76
72.81
65.13
57.74
51.49
46.94
44.27
43.33
43.76
45.16
47.29
50.02
53.23
56.71
59.97
62.23
62.53
60.12
54.72
46.82
37.48
28.04
19.61
12.59
6.61
0.76
-5.92
-13.93
-23.06
-32.53
-41.31
-48.66
-54.42
-59.14
-63.94
-70.21
-79.13
-91.09
-105.24
-119.15
-129.20
-131.47
-123.03
-103.11
-73.50
-38.25
-2.38
29.56
54.55
71.50
80.87
84.06
82.62
77.97
71.31
63.70
56.14
49.51
44.49
41.42
40.28
40.74
42.39
44.83
47.80
51.13
54.60
57.76
59.92
60.24
58.07
53.21
46.08
37.65
29.03
21.08
14.11
7.83
1.64
-5.11
-12.67
-20.85
-29.05
-36.57
-42.91
-48.04
-52.49
-57.23
-63.48
-72.18
-83.50
-96.32
-108.17
-115.58
-115.08
-104.34
-83.20
-53.85
-20.34
12.64
41.04
62.37
75.92
82.37
83.10
79.52
72.84
64.00
53.87
43.47
33.96
26.51
22.04
20.99
23.14
27.75
33.70
39.83
45.11
48.84
50.62
50.32
48.03
43.98
38.46
31.77
24.16
15.84
7.02
-2.03
-11.01
-19.54
-27.35
-34.24
-40.28
-45.77
-51.28
-57.54
-65.30
-74.93
-86.04
-97.06
-105.34
-107.68
-101.34
-85.11
-59.97
-28.97
3.61
33.54
57.71
74.65
84.37
87.79
86.17
80.66
72.38
62.46
52.18
42.82
35.49
30.82
28.93
29.43
31.67
34.98
38.82
42.84
46.67
49.86
51.74
51.55
48.71
43.13
35.30
26.22
17.13
8.96
2.14
-3.64
-9.16
-15.30
-22.62
-31.10
-40.13
-48.79
-56.25
-62.14
-66.71
-70.89
-75.99
-83.26
-93.32
-105.62
-118.12
-127.53
-130.12
-122.84
-104.57
-76.62
-42.57
-7.18
25.00
50.72
68.62
78.95
82.99
82.36
78.49
72.58
65.60
58.46
52.03
47.02
43.91
42.78
43.36
45.11
47.47
49.98
52.43
54.76
56.93
58.72
59.59
58.87
55.89
50.39
42.65
33.54
24.22
15.78
8.83
3.36
-1.24
-5.84
-11.20
-17.68
-25.11
-32.87
-40.19
-46.42
-51.27
-54.95
-58.19
-62.09
-67.84
-76.41
-87.91
-101.27
-113.98
-122.57
-123.44
-114.11
-94.18
-65.67
-32.47
0.79
30.06
52.81
68.21
76.81
79.81
78.56
74.24
67.90
60.55
53.24
46.99
42.57
40.43
40.49
42.30
45.11
48.16
50.90
53.06
54.61
55.60
56.01
55.61
54.03
50.92
46.10
39.76
32.36
24.57
17.10
10.42
4.75
-0.09
-4.53
-9.16
-14.46
-20.67
-27.60
-34.72
-41.29
-46.71
-50.75
-53.72
-56.43
-59.91
-65.19
-72.93
-83.09
-94.77
-106.06
-114.23
-116.27
-109.76
-93.73
-69.20
-39.09
-7.46
21.62
45.06
61.37
70.53
73.56
71.84
66.67
59.17
50.31
41.05
32.40
25.34
20.64
18.63
19.19
21.79
25.68
30.13
34.50
38.28
41.02
42.29
41.69
39.04
34.44
28.31
21.27
13.93
6.69
-0.38
-7.48
-14.82
-22.45
-30.13
-37.35
-43.61
-48.63
-52.58
-56.13
-60.27
-66.06
-74.13
-84.24
-94.92
-103.55
-106.94
-102.28
-88.25
-65.60
-37.16
-6.96
20.96
43.66
59.77
69.36
73.38
73.04
69.40
63.36
55.77
47.54
39.66
33.05
28.41
26.08
25.95
27.61
30.42
33.77
37.16
40.30
43.00
45.00
45.96
45.37
42.75
37.85
30.90
22.60
14.04
6.21
-0.26
-5.44
-9.95
-14.71
-20.45
-27.38
-35.16
-43.05
-50.23
-56.18
-60.83
-64.56
-68.17
-72.63
-78.95
-87.68
-98.51
-109.94
-119.33
-123.36
-119.12
-105.08
-81.85
-52.10
-19.82
10.83
36.50
55.38
67.14
72.52
72.83
69.42
63.51
56.14
48.31
40.97
34.97
30.97
29.26
29.70
31.77
34.80
38.15
41.44
44.48
47.22
49.47
50.82
50.70
48.54
44.09
37.63
29.88
21.88
14.55
8.34
3.08
-1.92
-7.55
-14.39
-22.45
-31.14
-39.48
-46.55
-51.91
-55.77
-58.99
-62.78
-68.33
-76.40
-86.91
-98.68
-109.41
-116.05
-115.53
-105.79
-86.56
-59.69
-28.69
2.23
29.38
50.36
64.34
71.76
73.76
71.63
66.57
59.61
51.71
43.86
36.96
31.77
28.75
27.99
29.15
31.70
35.00
38.58
42.14
45.48
48.33
50.21
50.45
48.37
43.67
36.59
28.00
19.11
11.06
4.48
-0.73
-5.23
-9.97
-15.68
-22.59
-30.28
-37.94
-44.64
-49.83
-53.50
-56.28
-59.25
-63.70
-70.65
-80.42
-92.17
-103.78
-112.13
-113.85
-106.39
-89.00
-63.21
-32.46
-1.15
26.67
48.30
62.76
70.49
72.69
70.65
65.39
57.71
48.43
38.57
29.41
22.19
17.87
16.86
18.89
23.21
28.75
34.45
39.36
42.83
44.44
44.03
41.65
37.52
31.97
25.41
18.19
10.56
2.69
-5.24
-13.02
-20.38
-27.10
-33.08
-38.42
-43.44
-48.63
-54.59
-61.86
-70.76
-81.10
-91.85
-101.01
-105.91
-103.80
-92.80
-72.74
-45.48
-14.47
16.14
42.70
62.83
75.76
81.95
82.60
79.03
72.42
63.75
54.01
44.24
35.56
28.97
25.12
24.15
25.67
28.98
33.29
37.96
42.52
46.53
49.47
50.65
49.38
45.29
38.60
30.14
21.16
12.80
5.68
-0.27
-5.79
-11.77
-18.87
-27.18
-36.14
-44.84
-52.39
-58.31
-62.80
-66.76
-71.51
-78.43
-88.31
-100.84
-114.25
-125.42
-130.55
-126.35
-111.13
-85.65
-53.02
-17.81
15.28
42.64
62.42
74.50
79.91
80.10
76.50
70.35
62.72
54.63
47.08
40.95
36.86
35.04
35.36
37.31
40.26
43.66
47.12
50.52
53.76
56.59
58.53
58.86
56.87
52.16
44.92
35.92
26.34
17.38
9.82
3.79
-1.22
-6.18
-11.99
-19.19
-27.61
-36.49
-44.80
-51.65
-56.75
-60.47
-63.83
-68.15
-74.69
-84.19
-96.47
-110.08
-122.30
-129.58
-128.41
-116.51
-93.76
-62.53
-27.08
7.64
37.42
59.72
73.94
80.92
82.23
79.45
73.91
66.72
58.85
51.24
44.76
40.08
37.57
37.27
38.91
42.06
46.14
50.56
54.72
58.09
60.25
60.90
59.88
57.23
53.10
47.78
41.58
34.81
27.74
20.63
13.72
7.29
1.60
-3.22
-7.27
-10.95
-14.86
-19.65
-25.74
-33.12
-41.34
-49.63
-57.20
-63.52
-68.54
-72.75
-77.15
-82.96
-91.32
-102.75
-116.62
-130.89
-142.22
-146.76
-141.33
-124.56
-97.60
-63.88
-28.09
5.10
32.20
51.47
62.75
67.01
65.70
60.33
52.30
42.84
33.21
24.70
18.57
15.91
17.29
22.52
30.66
40.39
50.40
59.92
68.74
76.86
84.09
89.71
92.63
91.85
87.10
79.09
69.40
59.84
51.87
46.07
42.05
38.81
35.19
30.42
24.28
17.21
9.96
3.29
-2.44
-7.34
-12.00
-17.08
-23.00
-29.72
-36.75
-43.40
-49.15
-53.81
-57.62
-61.03
-64.64
-69.09
-75.01
-82.71
-91.78
-100.57
-106.18
-104.99
-93.99
-72.00
-40.47
-3.29
34.45
67.97
94.05
111.53
121.05
124.21
122.92
118.87
113.34
107.29
101.36
95.97
91.35
87.63
84.79
82.70
81.12
79.73
78.27
76.67
75.12
73.90
73.20
72.80
72.02
69.96
65.91
59.76
52.13
44.22
37.25
31.96
28.32
25.59
22.74
18.92
13.78
7.62
1.14
-4.92
-10.15
-14.66
-19.03
-24.03
-30.30
-37.94
-46.47
-54.97
-62.47
-68.35
-72.55
-75.61
-78.37
-81.79
-86.65
-93.36
-101.80
-110.99
-118.99
-123.02
-120.23
-108.75
-88.62
-62.13
-33.21
-6.22
15.47
30.24
38.25
40.78
39.32
35.03
28.69
20.93
12.62
4.89
-0.98
-3.96
-3.53
0.21
6.56
14.55
23.14
31.51
39.09
45.47
50.30
53.17
53.62
51.37
46.49
39.55
31.47
23.33
15.87
9.30
3.29
-2.78
-9.38
-16.40
-23.11
-28.40
-31.27
-31.40
-29.43
-26.79
-25.26
-26.28
-30.43
-37.39
-46.08
-55.22
-63.78
-71.30
-78.00
-84.58
-92.12
-101.71
-113.99
-128.60
-143.65
-155.81
-160.89
-155.18
-136.86
-106.93
-69.00
-28.42
9.42
40.46
62.66
75.91
81.36
80.70
75.64
67.71
58.30
48.71
40.12
33.48
29.37
27.97
29.08
32.20
36.76
42.20
48.07
54.03
59.68
64.49
67.81
68.95
67.46
63.31
56.99
49.34
41.29
33.44
25.98
18.66
11.13
3.21
-4.88
-12.66
-19.60
-25.49
-30.56
-35.37
-40.54
-46.41
-52.85
-59.42
-65.54
-70.83
-75.29
-79.32
-83.64
-89.21
-96.92
-107.26
-119.72
-132.42
-142.09
-144.78
-137.15
-117.77
-87.95
-51.54
-13.67
20.74
48.33
67.78
79.46
84.58
84.46
80.20
72.68
62.86
51.92
41.28
32.31
26.09
23.17
23.45
26.33
30.92
36.30
41.79
47.03
51.80
55.90
58.90
60.14
58.93
54.87
48.11
39.42
30.06
21.28
13.94
8.15
3.30
-1.64
-7.66
-15.29
-24.38
-34.14
-43.48
-51.47
-57.62
-62.18
-65.92
-69.99
-75.54
-83.46
-94.02
-106.56
-119.27
-129.28
-133.13
-127.77
-111.61
-85.31
-51.75
-15.31
19.40
48.73
70.70
84.86
91.86
92.71
88.47
80.16
68.92
56.16
43.51
32.53
24.47
19.96
19.06
21.32
26.11
32.69
40.32
48.20
55.36
60.72
63.22
62.17
57.46
49.74
40.23
30.32
21.14
13.10
5.87
-1.36
-9.47
-18.84
-29.20
-39.75
-49.52
-57.83
-64.60
-70.46
-76.51
-84.12
-94.44
-107.80
-123.17
-137.85
-147.79
-148.68
-137.34
-113.08
-78.23
-37.54
3.24
39.03
66.59
84.86
94.47
96.93
93.96
87.10
77.70
66.98
56.11
46.12
37.91
32.10
29.02
28.77
31.18
35.84
42.15
49.27
56.20
61.83
65.10
65.25
62.02
55.79
47.45
38.14
28.81
19.92
11.38
2.69
-6.68
-16.96
-27.92
-38.90
-49.10
-57.94
-65.32
-71.80
-78.57
-87.10
-98.57
-113.07
-128.96
-142.80
-150.06
-146.52
-129.86
-100.66
-62.45
-20.61
19.27
52.88
77.91
94.01
102.05
103.39
99.44
91.58
81.25
69.98
59.28
50.37
44.00
40.44
39.49
40.74
43.76
48.15
53.53
59.49
65.41
70.46
73.59
73.82
70.54
63.80
54.42
43.76
33.25
23.83
15.69
8.23
0.41
-8.62
-19.10
-30.53
-41.88
-52.03
-60.31
-66.71
-72.03
-77.65
-85.16
-95.90
-110.28
-127.25
-144.01
-156.34
-159.65
-150.42
-127.59
-93.11
-51.57
-8.78
29.85
60.60
81.92
94.07
98.39
96.56
90.17
80.66
69.46
58.02
47.76
39.86
35.09
33.64
35.24
39.25
44.95
51.62
58.57
65.07
70.25
73.15
72.92
69.15
62.11
52.77
42.52
32.66
23.96
16.43
9.43
2.06
-6.40
-16.02
-26.26
-36.14
-44.72
-51.51
-56.73
-61.36
-66.86
-74.80
-86.16
-100.77
-116.74
-130.51
-137.55
-133.71
-116.77
-87.42
-49.39
-8.33
29.91
60.97
82.77
95.48
100.58
99.88
94.81
86.34
75.29
62.68
49.91
38.67
30.51
26.50
26.90
31.14
37.95
45.72
52.87
58.23
61.16
61.59
59.77
56.06
50.79
44.12
36.15
27.00
16.95
6.47
-3.80
-13.26
-21.49
-28.37
-34.17
-39.41
-44.88
-51.52
-60.26
-71.71
-85.65
-100.60
-113.61
-120.77
-118.19
-103.51
-76.88
-41.29
-1.75
36.14
67.74
90.39
103.46
107.95
105.63
98.38
87.87
75.51
62.61
50.40
40.05
32.52
28.45
28.00
30.83
36.16
42.92
50.01
56.32
60.91
63.03
62.19
58.29
51.66
43.07
33.48
23.78
14.48
5.62
-3.18
-12.31
-21.99
-31.98
-41.66
-50.34
-57.54
-63.29
-68.24
-73.58
-80.74
-90.84
-104.08
-119.14
-132.93
-141.15
-139.41
-124.81
-97.21
-59.58
-17.25
23.66
58.08
83.09
98.19
104.68
104.63
100.11
92.77
83.84
74.40
65.46
57.92
52.44
49.25
48.10
48.42
49.59
51.13
52.84
54.70
56.62
58.21
58.74
57.33
53.31
46.65
38.06
28.78
20.13
12.91
7.11
1.99
-3.57
-10.51
-19.10
-28.86
-38.76
-47.70
-55.00
-60.64
-65.45
-70.78
-78.17
-88.71
-102.39
-117.61
-131.10
-138.62
-136.12
-121.27
-94.43
-58.77
-19.38
18.28
49.84
72.88
86.92
92.89
92.41
87.27
79.18
69.70
60.18
51.65
44.71
39.60
36.28
34.66
34.63
36.06
38.70
42.12
45.71
48.77
50.58
50.55
48.34
43.93
37.71
30.33
22.52
14.77
7.20
-0.42
-8.45
-17.03
-25.97
-34.74
-42.72
-49.53
-55.15
-59.99
-64.85
-70.74
-78.64
-89.02
-101.34
-113.60
-122.48
-124.07
-115.20
-94.74
-64.37
-28.24
8.19
39.91
63.60
78.25
84.74
85.04
81.15
74.62
66.43
57.21
47.62
38.54
31.01
25.97
23.98
24.97
28.28
32.87
37.62
41.65
44.42
45.66
45.23
43.06
39.07
33.28
25.89
17.26
7.84
-1.91
-11.68
-21.19
-30.27
-38.74
-46.43
-53.28
-59.47
-65.48
-72.12
-80.35
-90.79
-103.17
-115.90
-125.98
-129.65
-123.53
-105.93
-77.74
-42.33
-4.68
30.12
58.28
78.00
89.38
93.77
92.95
88.51
81.68
73.50
64.87
56.75
49.95
45.01
42.06
40.86
40.95
41.90
43.38
45.24
47.39
49.54
51.19
51.57
49.92
45.69
38.85
29.97
20.11
10.45
1.89
-5.27
-11.42
-17.40
-24.07
-31.88
-40.67
-49.69
-57.99
-64.74
-69.63
-73.02
-75.87
-79.60
-85.62
-94.80
-106.80
-119.65
-129.89
-133.39
-126.67
-108.28
-79.44
-43.88
-6.72
27.12
54.15
72.86
83.57
87.67
86.87
82.76
76.60
69.44
62.21
55.78
50.86
47.85
46.74
47.12
48.34
49.77
51.00
51.94
52.70
53.38
53.87
53.79
52.55
49.58
44.58
37.62
29.20
20.14
11.36
3.60
-2.77
-7.93
-12.53
-17.46
-23.50
-30.94
-39.48
-48.31
-56.44
-63.09
-68.00
-71.53
-74.55
-78.23
-83.71
-91.71
-102.14
-113.73
-123.97
-129.48
-126.91
-114.11
-91.05
-60.11
-25.55
7.83
36.04
56.84
69.90
76.28
77.55
75.17
70.22
63.55
56.02
48.64
42.44
38.22
36.28
36.39
37.91
40.12
42.51
44.83
47.08
49.28
51.25
52.55
52.56
50.72
46.67
40.52
32.75
24.18
15.71
8.10
1.72
-3.50
-8.07
-12.73
-18.09
-24.43
-31.53
-38.79
-45.41
-50.78
-54.74
-57.64
-60.24
-63.55
-68.55
-75.86
-85.50
-96.50
-106.79
-113.47
-113.49
-104.66
-86.55
-60.81
-30.83
-0.76
25.74
46.30
60.12
67.69
70.10
68.52
63.90
57.02
48.58
39.40
30.43
22.64
16.88
13.70
13.22
15.10
18.63
22.91
27.01
30.23
32.15
32.59
31.58
29.16
25.36
20.20
13.77
6.24
-1.99
-10.45
-18.63
-26.13
-32.73
-38.41
-43.36
-47.92
-52.61
-57.98
-64.56
-72.51
-81.28
-89.47
-94.84
-94.89
-87.68
-72.64
-50.95
-25.30
0.92
24.61
43.70
57.35
65.69
69.24
68.52
63.95
56.00
45.53
33.80
22.36
12.71
5.90
2.28
1.53
2.89
5.48
8.55
11.69
14.69
17.40
19.54
20.55
19.67
16.23
9.90
0.98
-9.64
-20.68
-30.86
-39.37
-46.09
-51.62
-57.05
-63.65
-72.42
-83.72
-96.90
-110.12
-120.56
-124.98
-120.63
-106.25
-82.60
-52.41
-19.64
11.60
38.11
58.18
71.50
78.74
80.95
79.12
74.08
66.54
57.31
47.39
37.95
30.14
24.80
22.21
22.12
23.75
26.20
28.68
30.77
32.35
33.48
34.08
33.72
31.72
27.37
20.30
10.68
-0.74
-12.85
-24.55
-35.04
-44.02
-51.68
-58.62
-65.76
-74.12
-84.56
-97.46
-112.13
-126.57
-137.55
-141.33
-134.88
-116.95
-88.76
-53.75
-16.56
18.27
47.41
69.23
83.61
91.45
94.01
92.62
88.47
82.66
76.12
69.59
63.59
58.40
54.21
51.21
49.62
49.60
51.11
53.80
56.94
59.60
60.81
59.87
56.53
51.05
44.01
36.14
27.97
19.67
11.09
1.96
-7.89
-18.26
-28.63
-38.33
-46.81
-53.93
-60.06
-66.04
-73.07
-82.28
-94.28
-108.58
-123.21
-134.76
-139.13
-132.82
-114.28
-84.73
-48.03
-9.50
25.67
53.92
73.86
86.02
91.97
93.48
91.97
88.41
83.57
78.13
72.78
68.12
64.56
62.24
61.06
60.81
61.19
62.01
63.11
64.45
65.94
67.37
68.25
67.92
65.63
60.87
53.58
44.29
34.00
23.91
14.95
7.60
1.70
-3.41
-8.61
-14.63
-21.76
-29.81
-38.15
-45.97
-52.62
-57.85
-61.93
-65.59
-69.81
-75.69
-84.06
-95.18
-108.25
-121.20
-130.84
-133.51
-126.28
-108.04
-80.16
-46.17
-10.80
21.46
47.50
66.02
77.33
82.66
83.54
81.30
77.07
71.75
66.15
60.98
56.75
53.77
52.08
51.58
52.10
53.57
55.96
59.20
63.05
66.95
70.03
71.31
70.05
66.01
59.56
51.56
43.05
34.89
27.54
21.03
15.06
9.25
3.41
-2.37
-7.79
-12.52
-16.41
-19.66
-22.72
-26.18
-30.50
-35.82
-41.89
-48.24
-54.33
-59.80
-64.68
-69.40
-74.83
-81.91
-91.30
-102.82
-114.99
-125.10
-129.69
-125.67
-111.39
-87.41
-56.43
-22.56
9.91
37.57
58.41
71.95
78.73
79.91
76.82
70.78
63.03
54.71
46.83
40.25
35.58
33.16
32.94
34.55
37.40
40.87
44.41
47.69
50.48
52.55
53.58
53.21
51.05
46.89
40.80
33.17
24.67
16.15
8.41
1.95
-3.17
-7.34
-11.25
-15.60
-20.70
-26.50
-32.51
-38.12
-42.89
-46.71
-49.85
-52.89
-56.63
-61.88
-69.22
-78.65
-89.25
-99.02
-105.23
-105.13
-96.87
-80.27
-56.95
-29.97
-2.81
21.48
40.95
54.78
63.05
66.29
65.18
60.48
53.06
44.01
34.51
25.76
18.84
14.47
13.00
14.27
17.79
22.77
28.34
33.67
38.09
41.07
42.27
41.51
38.75
34.17
28.13
21.11
13.57
5.87
-1.78
-9.36
-16.86
-24.27
-31.43
-38.15
-44.24
-49.72
-54.89
-60.38
-66.85
-74.66
-83.35
-91.46
-96.67
-96.46
-88.94
-73.68
-51.96
-26.44
-0.43
23.11
42.10
55.64
63.74
66.93
65.86
61.19
53.56
43.80
33.00
22.46
13.50
7.16
3.95
3.72
5.79
9.21
13.06
16.68
19.67
21.77
22.69
22.04
19.40
14.52
7.50
-1.15
-10.57
-19.83
-28.17
-35.22
-41.09
-46.31
-51.67
-58.05
-66.16
-76.26
-87.77
-99.08
-107.63
-110.49
-105.23
-90.93
-68.60
-41.03
-12.00
14.92
37.19
53.67
64.39
69.98
71.20
68.69
63.05
55.05
45.69
36.18
27.73
21.33
17.49
16.21
17.00
19.05
21.57
23.96
26.01
27.74
29.17
30.10
29.95
27.96
23.45
16.21
6.71
-4.04
-14.79
-24.53
-32.74
-39.57
-45.71
-52.11
-59.74
-69.30
-80.93
-93.89
-106.40
-115.79
-119.06
-113.68
-98.58
-74.64
-44.62
-12.45
17.83
43.10
61.73
73.62
79.72
81.47
80.25
77.06
72.55
67.12
61.13
55.01
49.30
44.51
41.05
39.14
38.82
39.95
42.25
45.25
48.28
50.52
51.17
49.64
45.81
40.05
32.99
25.29
17.31
9.05
0.35
-8.95
-18.70
-28.45
-37.58
-45.58
-52.25
-57.83
-63.01
-68.78
-76.18
-85.88
-97.64
-109.98
-120.13
-124.62
-120.33
-105.68
-81.39
-50.40
-17.03
14.34
40.47
59.78
72.34
79.21
81.81
81.38
78.86
74.91
70.11
65.00
60.15
56.09
53.18
51.56
51.19
51.87
53.37
55.42
57.75
60.06
61.99
63.12
63.00
61.28
57.72
52.33
45.37
37.33
28.86
20.60
13.05
6.36
0.40
-5.26
-11.08
-17.40
-24.27
-31.50
-38.66
-45.34
-51.24
-56.27
-60.62
-64.75
-69.43
-75.51
-83.80
-94.56
-107.11
-119.49
-128.67
-131.22
-124.42
-107.28
-81.04
-48.93
-15.22
15.97
41.68
60.53
72.60
78.89
80.79
79.66
76.61
72.48
67.87
63.28
59.10
55.69
53.36
52.27
52.43
53.66
55.71
58.29
61.12
63.92
66.29
67.68
67.51
65.33
61.03
54.96
47.82
40.50
33.79
28.08
23.30
18.95
14.37
8.98
2.60
-4.49
-11.60
-17.93
-22.91
-26.45
-29.03
-31.50
-34.74
-39.27
-45.05
-51.57
-58.06
-63.86
-68.65
-72.58
-76.25
-80.58
-86.57
-95.05
-106.17
-118.98
-131.18
-139.48
-140.39
-131.42
-112.07
-84.16
-51.35
-17.98
12.08
36.35
53.90
65.09
70.96
72.77
71.71
68.80
64.93
60.78
56.91
53.70
51.35
49.91
49.32
49.45
50.20
51.54
53.54
56.22
59.37
62.48
64.74
65.32
63.65
59.68
53.94
47.34
40.87
35.15
30.32
25.96
21.43
16.17
9.99
3.17
-3.64
-9.74
-14.73
-18.67
-22.10
-25.78
-30.35
-36.00
-42.46
-49.09
-55.17
-60.24
-64.29
-67.72
-71.31
-76.01
-82.70
-91.84
-103.12
-115.04
-124.96
-129.59
-125.93
-112.39
-89.55
-60.12
-28.12
2.33
28.09
47.61
60.75
68.29
71.39
71.15
68.60
64.63
60.05
55.49
51.41
48.10
45.71
44.37
44.21
45.25
47.43
50.50
54.08
57.74
60.96
63.19
63.95
62.88
59.91
55.33
49.68
43.59
37.53
31.64
25.77
19.64
13.15
6.44
-0.10
-6.05
-11.18
-15.59
-19.68
-23.97
-28.84
-34.41
-40.45
-46.52
-52.11
-56.92
-61.02
-64.86
-69.21
-74.96
-82.81
-92.90
-104.40
-115.37
-122.93
-123.98
-116.19
-98.88
-73.50
-43.23
-12.12
16.14
39.07
55.74
66.41
71.96
73.35
71.39
66.83
60.45
53.18
46.00
39.82
35.18
32.35
31.25
31.68
33.37
36.09
39.59
43.57
47.59
51.04
53.26
53.61
51.66
47.32
40.92
33.18
25.03
17.36
10.72
5.18
0.26
-4.80
-10.69
-17.66
-25.42
-33.26
-40.34
-46.14
-50.62
-54.27
-57.89
-62.36
-68.42
-76.41
-86.01
-96.02
-104.31
-108.21
-105.23
-93.91
-74.49
-49.02
-20.82
6.49
29.97
47.94
60.00
66.70
68.91
67.49
63.07
56.26
47.73
38.40
29.31
21.57
16.04
13.19
13.03
15.16
18.95
23.59
28.31
32.41
35.35
36.78
36.53
34.65
31.29
26.64
20.87
14.14
6.62
-1.41
-9.59
-17.48
-24.68
-30.97
-36.38
-41.25
-46.19
-51.93
-59.16
-68.16
-78.48
-88.72
-96.60
-99.46
-95.02
-82.31
-62.06
-36.70
-9.62
15.80
37.07
52.99
63.51
69.18
70.66
68.46
62.97
54.69
44.41
33.31
22.79
14.15
8.29
5.50
5.44
7.34
10.30
13.57
16.72
19.61
22.10
23.88
24.41
22.99
19.14
12.81
4.54
-4.70
-13.85
-22.13
-29.24
-35.40
-41.21
-47.50
-55.10
-64.61
-76.13
-88.91
-101.14
-110.15
-112.99
-107.39
-92.62
-69.86
-41.99
-12.59
14.97
38.34
56.35
68.75
75.78
77.84
75.43
69.24
60.27
49.77
39.13
29.62
22.17
17.28
15.01
15.00
16.67
19.33
22.45
25.60
28.52
30.93
32.38
32.24
29.83
24.69
16.84
6.86
-4.16
-14.96
-24.58
-32.63
-39.42
-45.79
-52.86
-61.69
-72.89
-86.30
-100.67
-113.68
-122.23
-123.21
-114.46
-95.64
-68.50
-36.48
-3.75
25.92
49.97
67.32
78.09
83.11
83.43
80.12
74.22
66.70
58.51
50.47
43.25
37.33
33.07
30.74
30.47
32.17
35.47
39.73
44.16
47.95
50.48
51.29
50.16
46.96
41.66
34.34
25.22
14.72
3.39
-8.13
-19.28
-29.65
-39.08
-47.65
-55.64
-63.56
-72.11
-82.08
-94.12
-108.20
-123.24
-136.84
-145.62
-146.15
-136.06
-115.10
-85.40
-50.86
-16.02
15.19
40.34
58.58
70.31
76.54
78.43
77.02
73.25
67.99
62.14
56.58
52.08
49.20
48.22
49.02
51.21
54.29
57.79
61.40
64.96
68.33
71.19
72.98
73.01
70.69
65.74
58.40
49.36
39.60
30.11
21.59
14.24
7.74
1.40
-5.55
-13.57
-22.64
-32.23
-41.50
-49.68
-56.36
-61.63
-66.13
-70.86
-76.98
-85.50
-96.81
-110.23
-123.69
-133.89
-137.10
-130.26
-112.25
-84.35
-50.02
-13.82
19.86
47.87
68.76
82.53
90.12
92.79
91.79
88.24
83.15
77.45
71.97
67.38
64.13
62.37
61.97
62.62
63.99
65.82
68.00
70.49
73.15
75.64
77.33
77.46
75.40
70.89
64.24
56.24
47.97
40.34
33.84
28.36
23.33
18.02
11.93
5.09
-2.06
-8.77
-14.50
-19.04
-22.74
-26.24
-30.26
-35.25
-41.27
-47.97
-54.75
-60.98
-66.30
-70.70
-74.65
-79.01
-84.93
-93.42
-104.94
-118.76
-132.71
-143.32
-146.66
-139.64
-121.09
-92.40
-57.21
-20.30
13.75
41.72
62.14
75.16
81.84
83.60
81.77
77.49
71.79
65.62
59.80
55.04
51.80
50.23
50.23
51.51
53.70
56.50
59.63
62.87
65.94
68.39
69.65
69.12
66.37
61.34
54.45
46.55
38.68
31.72
26.05
21.47
17.30
12.80
7.56
1.69
-4.24
-9.47
-13.48
-16.30
-18.47
-20.83
-24.19
-28.94
-34.94
-41.58
-48.02
-53.54
-57.88
-61.33
-64.69
-69.11
-75.68
-85.04
-96.93
-109.84
-121.05
-127.14
-124.89
-112.46
-90.08
-60.24
-26.95
5.45
33.44
55.02
69.75
78.25
81.55
80.65
76.39
69.52
60.90
51.58
42.75
35.56
30.87
29.15
30.29
33.73
38.62
44.06
49.35
53.99
57.65
60.01
60.59
58.89
54.59
47.76
39.00
29.38
20.05
11.90
5.26
-0.19
-5.16
-10.46
-16.57
-23.47
-30.67
-37.41
-43.05
-47.26
-50.22
-52.54
-55.09
-58.86
-64.66
-72.82
-82.94
-93.60
-102.46
-106.68
-103.70
-92.14
-72.35
-46.46
-17.74
10.24
34.58
53.49
66.36
73.47
75.51
73.31
67.71
59.57
49.83
39.57
29.93
21.97
16.55
14.11
14.63
17.60
22.20
27.43
32.38
36.28
38.58
38.98
37.45
34.14
29.40
23.61
17.10
10.08
2.62
-5.23
-13.36
-21.55
-29.46
-36.81
-43.45
-49.52
-55.47
-61.93
-69.60
-78.84
-89.37
-99.90
-108.18
-111.43
-107.10
-93.86
-72.20
-44.47
-14.25
14.65
39.19
57.70
69.82
76.15
77.61
75.14
69.46
61.28
51.40
40.82
30.68
22.16
16.16
13.21
13.32
15.99
20.38
25.48
30.32
34.12
36.40
36.94
35.74
32.94
28.60
22.76
15.43
6.66
-3.22
-13.66
-23.93
-33.38
-41.68
-48.91
-55.54
-62.29
-69.95
-79.18
-90.30
-102.93
-115.74
-126.32
-131.54
-128.46
-115.33
-92.42
-62.12
-28.30
4.78
33.60
56.08
71.63
80.76
84.59
84.33
81.08
75.77
69.12
61.76
54.28
47.27
41.33
36.96
34.50
33.99
35.19
37.62
40.69
43.69
45.96
46.83
45.80
42.63
37.38
30.47
22.44
13.81
4.88
-4.37
-14.07
-24.31
-34.89
-45.30
-54.85
-62.98
-69.55
-74.96
-80.16
-86.40
-94.82
-105.93
-119.02
-132.03
-141.67
-144.29
-136.97
-118.61
-90.54
-56.19
-20.12
13.27
40.89
61.38
74.87
82.44
85.39
84.85
81.74
76.84
70.88
64.68
59.00
54.52
51.65
50.53
51.09
53.05
56.08
59.77
63.71
67.47
70.53
72.37
72.46
70.40
66.06
59.59
51.45
42.33
32.93
23.86
15.49
7.90
0.90
-5.96
-13.17
-21.10
-29.86
-39.18
-48.51
-57.17
-64.61
-70.68
-75.69
-80.40
-85.92
-93.40
-103.58
-116.31
-130.09
-142.02
-148.31
-145.39
-131.13
-105.82
-72.21
-34.74
1.79
33.51
58.18
75.27
85.41
89.85
89.95
86.99
82.11
76.30
70.43
65.17
61.01
58.24
56.96
57.10
58.53
60.98
64.16
67.74
71.32
74.40
76.44
76.91
75.47
72.00
66.62
59.63
51.40
42.30
32.73
23.10
13.81
5.17
-2.68
-9.85
-16.65
-23.55
-30.88
-38.78
-47.02
-55.10
-62.50
-68.86
-74.20
-78.96
-83.96
-90.18
-98.58
-109.66
-122.97
-136.73
-147.84
-152.45
-147.11
-130.06
-102.09
-66.49
-28.09
8.23
38.81
61.87
77.38
86.29
89.91
89.42
85.87
80.24
73.57
66.89
61.08
56.72
54.04
53.04
53.58
55.50
58.64
62.80
67.59
72.39
76.41
78.84
79.05
76.77
72.17
65.75
58.15
49.97
41.65
33.41
25.31
17.41
9.77
2.48
-4.38
-10.86
-17.15
-23.57
-30.43
-37.79
-45.48
-52.99
-59.80
-65.52
-70.21
-74.40
-79.01
-85.19
-93.93
-105.65
-119.65
-133.85
-144.85
-148.72
-142.15
-123.73
-94.66
-58.52
-20.23
15.44
45.07
67.10
81.56
89.38
91.79
89.95
84.93
77.80
69.63
61.47
54.24
48.61
45.02
43.66
44.50
47.26
51.45
56.38
61.31
65.53
68.48
69.80
69.30
66.95
62.85
57.15
50.09
42.04
33.49
25.02
17.18
10.30
4.42
-0.83
-5.99
-11.68
-18.26
-25.75
-33.74
-41.58
-48.54
-54.16
-58.40
-61.72
-65.03
-69.46
-76.11
-85.65
-97.91
-111.54
-123.93
-131.62
-131.17
-120.30
-98.81
-68.90
-34.52
-0.28
29.85
53.46
69.83
79.48
83.51
83.05
78.94
71.92
62.79
52.57
42.55
34.05
28.14
25.45
25.97
29.12
34.02
39.70
45.39
50.58
54.90
58.03
59.56
58.98
55.91
50.30
42.60
33.70
24.69
16.60
9.94
4.65
0.09
-4.63
-10.27
-17.16
-25.03
-33.18
-40.78
-47.20
-52.22
-56.07
-59.42
-63.13
-68.12
-75.18
-84.51
-95.45
-106.17
-113.83
-115.21
-107.77
-90.67
-65.25
-34.71
-3.17
25.55
48.85
65.62
75.97
80.64
80.46
76.20
68.52
58.24
46.38
34.16
22.95
13.93
8.04
5.70
6.83
10.80
16.66
23.27
29.50
34.41
37.36
38.03
36.44
32.93
27.97
22.05
15.51
8.50
1.00
-7.00
-15.39
-23.86
-31.97
-39.36
-45.90
-51.86
-57.85
-64.69
-73.12
-83.44
-95.03
-106.22
-114.31
-116.25
-109.60
-93.45
-68.97
-39.17
-8.04
20.64
44.28
61.75
73.16
79.16
80.46
77.53
70.77
60.80
48.63
35.68
23.51
13.51
6.59
3.07
2.67
4.74
8.40
12.85
17.44
21.73
25.41
28.08
29.25
28.32
24.77
18.40
9.52
-1.04
-12.21
-22.94
-32.61
-41.06
-48.62
-55.86
-63.46
-72.13
-82.44
-94.54
-107.79
-120.39
-129.46
-131.60
-124.06
-105.80
-78.17
-44.59
-9.59
22.61
49.08
68.55
81.14
87.64
88.97
85.95
79.30
69.91
58.89
47.49
36.94
28.19
21.83
18.08
16.89
18.01
21.01
25.32
30.13
34.60
37.94
39.54
39.07
36.46
31.78
25.14
16.69
6.64
-4.65
-16.59
-28.50
-39.74
-49.86
-58.82
-67.00
-75.14
-84.30
-95.44
-109.04
-124.45
-139.63
-151.25
-155.50
-149.19
-130.99
-101.98
-65.50
-26.18
11.32
43.42
68.14
85.04
94.75
98.41
97.30
92.67
85.68
77.43
68.93
61.04
54.41
49.45
46.29
44.88
45.10
46.87
50.14
54.76
60.29
65.83
70.13
71.80
69.87
64.09
55.10
44.21
32.92
22.42
13.16
4.84
-3.41
-12.50
-22.99
-34.77
-47.08
-58.83
-69.02
-77.19
-83.63
-89.40
-96.04
-105.12
-117.56
-133.07
-149.65
-163.73
-170.91
-167.16
-150.32
-120.89
-82.10
-39.06
2.79
39.03
67.14
86.53
98.01
102.97
102.96
99.26
93.05
85.47
77.66
70.68
65.36
62.11
60.93
61.50
63.41
66.30
69.92
74.06
78.44
82.55
85.71
87.11
86.06
82.07
75.11
65.62
54.47
42.80
31.72
21.94
13.56
6.03
-1.61
-10.29
-20.47
-31.88
-43.60
-54.46
-63.52
-70.48
-75.80
-80.58
-86.23
-94.16
-105.33
-119.82
-136.35
-152.11
-163.00
-164.69
-153.94
-129.94
-94.81
-53.10
-10.43
28.15
59.31
81.83
96.14
103.58
105.63
103.64
98.81
92.25
85.07
78.36
72.93
69.29
67.56
67.57
69.06
71.77
75.54
80.17
85.33
90.40
94.45
96.45
95.56
91.46
84.47
75.50
65.80
56.53
48.38
41.41
35.09
28.57
21.18
12.73
3.64
-5.27
-13.17
-19.70
-25.13
-30.26
-35.98
-42.82
-50.67
-58.85
-66.45
-72.76
-77.66
-81.70
-85.94
-91.74
-100.36
-112.52
-127.90
-144.64
-159.36
-167.61
-165.18
-149.48
-120.65
-81.82
-38.20
4.44
41.39
69.93
89.42
100.71
105.30
104.71
100.26
93.10
84.35
75.14
66.59
59.63
54.89
52.60
52.64
54.65
58.21
62.87
68.29
74.04
79.54
83.98
86.41
85.99
82.33
75.73
67.13
57.83
49.07
41.55
35.30
29.73
24.05
17.61
10.25
2.36
-5.31
-12.02
-17.33
-21.39
-24.84
-28.56
-33.30
-39.35
-46.35
-53.52
-59.91
-64.88
-68.45
-71.25
-74.50
-79.58
-87.64
-99.14
-113.34
-128.08
-139.88
-144.70
-139.11
-121.47
-92.73
-56.33
-17.20
19.64
50.39
73.14
87.71
95.05
96.43
92.93
85.45
74.86
62.32
49.36
37.70
28.78
23.43
21.69
22.93
26.28
30.94
36.40
42.37
48.44
53.97
57.97
59.42
57.61
52.40
44.43
34.82
24.92
15.82
8.04
1.44
-4.70
-11.31
-19.07
-28.07
-37.75
-47.15
-55.34
-61.77
-66.55
-70.38
-74.33
-79.58
-87.10
-97.27
-109.53
-122.03
-131.80
-135.26
-129.34
-112.54
-85.73
-52.05
-15.95
18.06
46.59
67.96
81.97
89.38
91.18
88.28
81.41
71.38
59.22
46.27
34.02
23.87
16.89
13.60
13.95
17.41
23.10
29.97
36.96
43.07
47.43
49.38
48.57
45.01
39.15
31.62
23.08
13.92
4.23
-6.10
-17.11
-28.58
-40.00
-50.71
-60.17
-68.27
-75.38
-82.37
-90.31
-100.19
-112.46
-126.45
-140.12
-150.19
-152.84
-144.89
-125.01
-94.40
-56.55
-16.30
21.51
53.23
76.90
92.20
99.95
101.46
98.18
91.40
82.22
71.58
60.31
49.21
39.11
30.91
25.40
23.16
24.35
28.57
34.92
42.11
48.75
53.57
55.68
54.70
50.80
44.51
36.61
27.77
18.39
8.55
-1.91
-13.11
-25.02
-37.27
-49.23
-60.22
-69.78
-77.94
-85.34
-93.11
-102.60
-114.69
-129.17
-144.23
-156.46
-161.66
-156.08
-137.82
-107.68
-69.07
-27.04
13.26
47.80
74.41
92.63
103.20
107.36
106.41
101.51
93.82
84.44
74.51
65.11
57.14
51.23
47.70
46.51
47.38
49.92
53.68
58.25
63.19
67.85
71.39
72.83
71.26
66.21
57.86
47.09
35.20
23.59
13.21
4.33
-3.50
-11.21
-19.76
-29.67
-40.78
-52.31
-63.16
-72.38
-79.58
-85.06
-89.84
-95.36
-103.13
-114.24
-128.73
-145.17
-160.44
-170.23
-170.13
-157.10
-130.62
-93.13
-49.36
-4.93
35.19
67.71
91.36
106.37
113.91
115.38
112.24
105.88
97.67
88.91
80.69
73.78
68.58
65.19
63.55
63.61
65.38
68.82
73.71
79.45
85.02
89.18
90.79
89.25
84.65
77.73
69.53
61.00
52.65
44.53
36.34
27.78
18.72
9.33
0.06
-8.57
-16.18
-22.68
-28.38
-33.85
-39.81
-46.72
-54.61
-63.01
-71.15
-78.28
-84.07
-88.82
-93.52
-99.55
-108.34
-120.83
-136.79
-154.38
-170.02
-179.03
-176.83
-160.49
-129.98
-88.44
-41.44
4.74
44.75
75.47
96.11
107.72
112.20
111.53
107.39
101.12
93.88
86.71
80.46
75.69
72.60
71.06
70.80
71.57
73.30
76.02
79.74
84.19
88.74
92.39
94.08
92.98
88.80
81.87
73.09
63.58
54.39
46.20
39.12
32.76
26.40
19.35
11.25
2.35
-6.58
-14.55
-20.83
-25.33
-28.72
-32.16
-36.73
-43.00
-50.74
-59.10
-67.01
-73.69
-78.94
-83.29
-87.82
-93.94
-102.92
-115.42
-130.86
-147.01
-160.14
-165.72
-159.78
-140.38
-108.39
-67.47
-23.03
19.32
55.15
82.01
99.40
108.31
110.47
107.71
101.69
93.76
85.02
76.44
68.82
62.83
58.85
56.92
56.80
58.08
60.39
63.53
67.37
71.67
75.87
79.08
80.23
78.58
73.95
66.85
58.32
49.51
41.33
34.18
27.95
22.19
16.33
9.99
3.10
-4.04
-10.83
-16.60
-20.92
-23.82
-25.93
-28.23
-31.70
-36.89
-43.61
-51.02
-58.04
-63.81
-68.10
-71.42
-74.82
-79.56
-86.69
-96.77
-109.43
-123.14
-135.16
-141.93
-139.95
-126.98
-102.92
-70.16
-32.94
3.89
36.13
61.19
78.24
87.73
90.73
88.39
81.81
72.09
60.53
48.61
37.85
29.45
24.09
21.84
22.26
24.72
28.55
33.26
38.46
43.80
48.81
52.86
55.22
55.22
52.43
46.88
39.05
29.84
20.29
11.33
3.52
-3.16
-9.17
-15.27
-22.14
-30.02
-38.63
-47.16
-54.66
-60.40
-64.26
-66.77
-69.03
-72.37
-77.94
-86.23
-96.73
-107.79
-116.77
-120.57
-116.53
-103.23
-81.10
-52.39
-20.58
10.52
37.70
58.89
73.28
81.06
83.03
80.28
73.87
64.81
53.98
42.29
30.69
20.25
12.06
7.01
5.55
7.51
12.15
18.34
24.84
30.60
34.82
37.00
36.94
34.67
30.43
24.57
17.51
9.59
1.05
-7.95
-17.23
-26.53
-35.52
-43.88
-51.44
-58.26
-64.76
-71.58
-79.51
-89.13
-100.32
-111.92
-121.63
-126.36
-123.14
-110.20
-87.70
-57.87
-24.42
8.57
37.65
60.70
76.91
86.49
90.08
88.55
82.81
73.86
62.84
50.96
39.38
29.09
20.89
15.29
12.64
13.02
16.23
21.70
28.42
35.10
40.39
43.24
43.10
40.10
34.77
27.88
20.04
11.67
2.94
-6.17
-15.70
-25.59
-35.67
-45.63
-55.10
-63.71
-71.27
-78.02
-84.63
-92.19
-101.73
-113.63
-126.98
-139.39
-147.30
-147.04
-136.07
-113.92
-82.55
-45.80
-8.23
26.01
54.06
74.55
87.40
93.33
93.52
89.37
82.36
73.87
65.07
56.80
49.56
43.63
39.18
36.37
35.37
36.27
38.99
43.16
48.11
52.83
56.21
57.20
55.19
50.17
42.74
33.89
24.57
15.38
6.35
-2.92
-12.92
-23.85
-35.39
-46.83
-57.27
-66.08
-73.13
-78.97
-84.61
-91.37
-100.36
-112.02
-125.59
-138.86
-148.40
-150.31
-141.44
-120.55
-88.99
-50.41
-9.79
27.99
59.35
82.52
97.36
104.82
106.28
103.13
96.65
88.04
78.41
68.85
60.29
53.47
48.82
46.45
46.13
47.50
50.16
53.79
58.14
62.89
67.48
71.05
72.60
71.21
66.45
58.59
48.55
37.66
27.22
18.07
10.31
3.36
-3.72
-11.82
-21.37
-32.08
-43.13
-53.43
-62.14
-68.89
-73.99
-78.26
-82.89
-89.15
-98.07
-109.98
-124.01
-137.80
-147.72
-149.75
-140.68
-119.46
-87.67
-49.24
-9.25
27.55
57.81
80.06
94.37
101.73
103.39
100.53
94.25
85.67
76.04
66.63
58.64
52.95
49.98
49.67
51.52
54.82
58.82
62.95
66.83
70.18
72.71
73.96
73.38
70.45
64.87
56.81
46.90
36.14
25.67
16.40
8.78
2.61
-2.83
-8.53
-15.29
-23.42
-32.53
-41.73
-50.01
-56.66
-61.57
-65.24
-68.69
-73.12
-79.65
-89.07
-101.35
-115.35
-128.59
-137.51
-138.33
-128.29
-106.72
-75.49
-38.54
-0.74
33.53
61.28
81.24
93.51
98.97
98.78
94.14
86.24
76.40
65.96
56.23
48.28
42.83
40.13
40.02
42.02
45.52
49.88
54.53
58.97
62.77
65.45
66.61
65.84
62.92
57.81
50.72
42.18
32.90
23.73
15.35
8.12
1.96
-3.67
-9.46
-15.98
-23.42
-31.48
-39.47
-46.58
-52.21
-56.20
-58.92
-61.20
-64.12
-68.82
-76.11
-86.21
-98.31
-110.42
-119.52
-122.25
-115.84
-99.18
-73.29
-41.19
-7.06
24.93
51.62
71.36
83.90
89.89
90.28
86.03
78.01
67.20
54.85
42.48
31.64
23.65
19.19
18.24
20.20
24.22
29.49
35.39
41.45
47.11
51.65
54.25
54.15
51.01
45.06
37.11
28.36
19.95
12.64
6.53
1.12
-4.40
-10.77
-18.24
-26.49
-34.74
-42.13
-48.08
-52.60
-56.29
-60.16
-65.32
-72.65
-82.33
-93.60
-104.60
-112.52
-114.31
-107.54
-91.35
-66.85
-36.92
-5.41
23.91
48.22
66.06
77.19
82.16
81.88
77.27
69.27
58.83
47.04
35.10
24.24
15.55
9.79
7.28
7.86
10.98
15.81
21.43
26.95
31.54
34.54
35.51
34.28
30.93
25.71
18.95
11.02
2.22
-7.04
-16.36
-25.25
-33.30
-40.27
-46.14
-51.21
-56.01
-61.31
-67.93
-76.44
-86.81
-98.00
-107.88
-113.55
-112.12
-101.65
-81.95
-54.78
-23.45
8.15
36.48
59.15
75.08
84.36
87.76
86.28
80.90
72.51
61.94
50.08
37.95
26.73
17.57
11.40
8.70
9.40
12.90
18.16
24.01
29.33
33.23
35.17
34.99
32.79
28.84
23.46
16.87
9.24
0.66
-8.66
-18.38
-28.02
-37.06
-45.15
-52.17
-58.41
-64.49
-71.28
-79.70
-90.32
-102.95
-116.20
-127.43
-133.25
-130.45
-117.13
-93.53
-62.12
-26.92
7.62
37.82
61.42
77.67
86.94
90.20
88.59
83.29
75.45
66.23
56.73
47.84
40.24
34.34
30.34
28.36
28.44
30.56
34.53
39.86
45.72
51.00
54.55
55.39
53.05
47.63
39.82
30.64
21.15
12.08
3.65
-4.39
-12.59
-21.44
-31.09
-41.22
-51.11
-59.97
-67.27
-73.06
-78.10
-83.66
-91.16
-101.49
-114.40
-128.02
-139.10
-143.70
-138.50
-121.96
-95.00
-60.80
-23.78
11.60
42.01
65.66
82.14
91.99
96.15
95.64
91.53
84.85
76.69
68.14
60.22
53.76
49.36
47.18
47.06
48.56
51.17
54.43
58.02
61.68
65.06
67.61
68.63
67.47
63.73
57.48
49.22
39.79
30.13
21.03
12.92
5.81
-0.73
-7.37
-14.75
-23.21
-32.58
-42.22
-51.20
-58.77
-64.62
-69.12
-73.20
-78.15
-85.21
-95.13
-107.76
-121.65
-134.11
-141.64
-140.81
-129.35
-107.06
-76.06
-40.26
-4.24
27.98
53.81
72.26
83.67
89.07
89.71
86.79
81.45
74.80
67.90
61.62
56.57
53.05
51.10
50.66
51.67
54.10
57.84
62.62
67.87
72.77
76.39
77.91
76.86
73.23
67.47
60.32
52.57
44.87
37.50
30.45
23.42
16.13
8.43
0.49
-7.25
-14.32
-20.40
-25.55
-30.20
-34.91
-40.15
-46.04
-52.34
-58.53
-64.12
-68.84
-72.87
-76.82
-81.68
-88.51
-98.07
-110.23
-123.52
-135.10
-141.28
-138.60
-125.00
-100.71
-68.34
-32.10
3.39
34.40
58.66
75.53
85.45
89.44
88.63
84.13
77.06
68.59
59.96
52.28
46.41
42.84
41.73
42.89
45.94
50.32
55.44
60.61
65.17
68.50
70.16
69.91
67.74
63.84
58.53
52.19
45.15
37.66
29.87
21.97
14.17
6.74
-0.08
-6.16
-11.61
-16.76
-22.01
-27.67
-33.81
-40.15
-46.23
-51.56
-55.91
-59.44
-62.70
-66.53
-71.88
-79.49
-89.49
-101.06
-112.19
-119.96
-121.12
-113.20
-95.36
-68.92
-37.06
-3.93
26.56
51.64
70.01
81.66
87.23
87.60
83.57
75.95
65.74
54.22
42.87
33.11
25.96
21.90
20.74
21.93
24.79
28.76
33.49
38.67
43.87
48.34
51.16
51.47
48.82
43.43
36.06
27.84
19.79
12.51
6.08
0.10
-6.04
-12.87
-20.58
-28.93
-37.31
-44.95
-51.22
-55.87
-59.20
-61.99
-65.35
-70.34
-77.57
-86.73
-96.41
-104.18
-107.09
-102.62
-89.49
-68.26
-41.28
-11.96
16.14
40.23
58.68
70.98
77.41
78.62
75.39
68.58
59.16
48.24
36.98
26.47
17.64
11.22
7.65
7.11
9.42
14.04
20.10
26.60
32.46
36.84
39.15
39.19
37.07
33.18
28.01
21.99
15.43
8.40
0.89
-7.13
-15.58
-24.19
-32.57
-40.33
-47.27
-53.41
-59.13
-65.05
-71.93
-80.26
-89.92
-99.82
-107.81
-111.15
-107.27
-94.79
-74.08
-47.36
-18.07
10.16
34.41
53.03
65.63
72.64
74.85
73.00
67.66
59.39
48.93
37.31
25.90
16.14
9.20
5.77
5.81
8.67
13.29
18.60
23.71
28.04
31.28
33.22
33.62
32.19
28.68
22.97
15.20
5.76
-4.77
-15.74
-26.50
-36.53
-45.51
-53.39
-60.42
-67.17
-74.49
-83.27
-94.05
-106.50
-119.09
-129.05
-133.05
-128.19
-113.08
-88.45
-57.07
-22.89
10.04
38.53
60.69
75.90
84.39
86.95
84.62
78.61
70.20
60.59
50.84
41.72
33.85
27.67
23.60
21.94
22.84
26.12
31.20
37.14
42.81
47.14
49.33
49.01
46.23
41.37
34.94
27.37
18.99
9.99
0.47
-9.46
-19.63
-29.80
-39.64
-48.87
-57.30
-64.95
-72.24
-79.97
-89.13
-100.41
-113.54
-126.79
-137.09
-140.68
-134.41
-116.88
-89.17
-54.56
-17.57
17.34
46.82
69.16
84.11
92.41
95.20
93.67
88.92
81.99
73.91
65.70
58.27
52.31
48.17
45.88
45.27
46.13
48.33
51.80
56.27
61.18
65.51
68.03
67.69
63.96
57.11
48.08
38.21
28.62
19.94
12.08
4.42
-3.85
-13.30
-23.95
-35.23
-46.14
-55.72
-63.36
-69.08
-73.59
-78.12
-84.10
-92.71
-104.37
-118.18
-131.76
-141.57
-143.80
-135.58
-116.05
-86.82
-51.54
-14.84
19.01
46.98
67.71
81.18
88.26
90.12
88.02
83.13
76.54
69.26
62.13
55.96
51.36
48.78
48.38
50.04
53.33
57.59
62.20
66.54
70.21
72.85
74.16
73.83
71.63
67.43
61.32
53.61
44.78
35.44
26.18
17.45
9.48
2.17
-4.85
-12.04
-19.79
-28.17
-36.93
-45.52
-53.37
-60.05
-65.49
-70.05
-74.48
-79.84
-87.30
-97.64
-110.75
-125.14
-137.86
-145.10
-143.30
-130.34
-106.48
-74.27
-37.91
-1.89
30.07
55.64
73.98
85.30
90.47
90.60
87.01
81.04
74.01
67.04
60.98
56.33
53.38
52.19
52.76
54.93
58.43
62.81
67.51
71.86
75.24
77.12
77.11
75.06
71.07
65.44
58.61
51.04
43.12
35.02
26.84
18.61
10.52
2.81
-4.17
-10.25
-15.52
-20.39
-25.44
-31.11
-37.56
-44.46
-51.22
-57.20
-62.02
-65.76
-69.05
-72.96
-78.71
-87.30
-98.94
-112.63
-125.96
-135.42
-137.36
-129.08
-109.84
-81.27
-46.93
-11.27
21.55
48.59
68.44
81.01
87.12
87.93
84.70
78.60
70.74
62.14
53.81
46.67
41.48
38.75
38.65
40.99
45.27
50.74
56.63
62.19
66.77
69.86
71.10
70.26
67.26
62.25
55.55
47.66
39.15
30.61
22.50
15.03
8.23
1.86
-4.38
-10.85
-17.74
-25.05
-32.52
-39.68
-46.05
-51.24
-55.16
-58.13
-60.84
-64.30
-69.59
-77.51
-88.11
-100.40
-112.16
-120.27
-121.49
-113.47
-95.55
-69.21
-37.64
-4.91
25.23
50.07
68.34
79.94
85.45
85.68
81.44
73.61
63.26
51.75
40.59
31.23
24.73
21.58
21.62
24.27
28.71
34.16
40.01
45.74
50.85
54.75
56.77
56.30
53.00
47.00
38.99
30.01
21.15
13.22
6.43
0.41
-5.57
-12.27
-20.03
-28.61
-37.24
-44.94
-50.98
-55.20
-58.20
-61.15
-65.45
-72.21
-81.84
-93.70
-106.00
-116.02
-120.66
-117.22
-104.34
-82.45
-53.86
-22.17
8.77
35.72
56.75
71.15
79.18
81.54
79.08
72.69
63.40
52.42
41.08
30.65
22.17
16.34
13.48
13.58
16.40
21.40
27.82
34.68
40.96
45.66
48.08
47.86
45.06
40.08
33.52
26.03
18.08
9.94
1.60
-7.12
-16.35
-26.02
-35.78
-45.08
-53.38
-60.37
-66.22
-71.62
-77.65
-85.38
-95.41
-107.25
-119.08
-127.86
-130.17
-123.23
-105.93
-79.43
-46.84
-12.38
19.91
47.04
67.50
81.08
88.35
90.18
87.48
81.20
72.38
62.20
51.85
42.46
34.87
29.61
26.84
26.42
28.00
31.16
35.45
40.41
45.50
50.05
53.25
54.23
52.32
47.35
39.76
30.57
21.00
12.11
4.37
-2.48
-9.17
-16.56
-25.23
-35.19
-45.88
-56.43
-65.92
-73.81
-80.10
-85.36
-90.71
-97.50
-106.86
-119.09
-133.19
-146.57
-155.52
-156.18
-145.82
-123.91
-92.42
-55.28
-17.15
17.84
46.94
68.97
83.92
92.44
95.39
93.68
88.30
80.31
70.86
61.07
52.02
44.57
39.41
36.89
37.05
39.60
43.99
49.49
55.38
60.98
65.67
68.88
70.12
69.01
65.33
59.15
50.84
41.05
30.61
20.30
10.69
1.91
-6.31
-14.54
-23.33
-33.01
-43.47
-54.16
-64.31
-73.16
-80.34
-85.98
-90.74
-95.72
-102.23
-111.36
-123.46
-137.65
-151.50
-161.37
-163.21
-153.92
-132.41
-100.24
-61.22
-20.34
17.69
49.47
73.39
89.39
98.35
101.48
99.98
94.97
87.54
78.85
70.08
62.29
56.33
52.69
51.48
52.52
55.41
59.68
64.85
70.44
75.93
80.67
83.98
85.13
83.63
79.27
72.23
63.09
52.66
41.83
31.39
21.85
13.34
5.58
-2.02
-10.15
-19.29
-29.49
-40.23
-50.64
-59.74
-66.93
-72.18
-76.11
-79.82
-84.62
-91.79
-102.17
-115.72
-131.17
-145.70
-155.39
-156.08
-144.80
-120.91
-86.56
-46.23
-5.27
31.59
61.27
82.67
96.19
103.00
104.41
101.53
95.37
86.91
77.30
67.78
59.54
53.57
50.46
50.28
52.66
56.92
62.27
67.99
73.46
78.20
81.74
83.60
83.37
80.75
75.68
68.35
59.21
48.92
38.27
28.04
18.76
10.67
3.54
-3.16
-10.11
-17.82
-26.46
-35.79
-45.22
-54.07
-61.71
-67.85
-72.58
-76.48
-80.62
-86.34
-94.92
-106.97
-121.73
-136.81
-148.32
-151.88
-143.97
-123.30
-91.36
-52.14
-10.90
27.35
59.04
82.53
97.78
105.72
107.51
104.27
97.02
86.89
75.23
63.50
53.16
45.32
40.58
39.02
40.29
43.81
48.90
54.92
61.22
67.12
71.90
74.83
75.30
73.01
67.99
60.68
51.77
42.06
32.32
23.10
14.71
7.15
0.14
-6.74
-14.00
-21.96
-30.66
-39.76
-48.65
-56.63
-63.17
-68.15
-71.98
-75.49
-79.86
-86.29
-95.74
-108.30
-122.80
-136.61
-145.93
-146.77
-136.25
-113.68
-81.03
-42.42
-2.82
33.27
62.77
84.36
98.05
104.58
104.90
100.01
90.96
79.05
65.78
52.77
41.55
33.28
28.64
27.70
30.01
34.76
41.02
47.91
54.72
60.89
65.83
69.02
69.90
68.05
63.34
56.02
46.72
36.37
25.94
16.27
7.82
0.56
-5.97
-12.53
-19.87
-28.35
-37.84
-47.63
-56.79
-64.47
-70.29
-74.56
-78.12
-82.24
-88.21
-96.98
-108.76
-122.56
-136.04
-145.69
-147.67
-138.91
-118.24
-87.01
-48.79
-8.49
29.10
60.38
83.52
98.28
105.45
106.20
101.64
92.77
80.67
66.70
52.49
39.84
30.31
24.85
23.58
25.88
30.66
36.84
43.59
50.44
57.03
62.88
67.18
68.95
67.37
62.15
53.81
43.50
32.70
22.68
14.05
6.71
-0.08
-7.28
-15.59
-25.16
-35.50
-45.71
-54.77
-62.04
-67.45
-71.57
-75.41
-80.23
-87.19
-96.97
-109.38
-122.93
-134.80
-141.31
-138.85
-125.16
-100.22
-66.53
-28.39
9.32
42.48
68.51
86.51
96.78
100.19
97.77
90.50
79.50
66.08
51.81
38.30
27.01
18.97
14.65
14.00
16.62
21.87
29.01
37.20
45.39
52.41
57.07
58.50
56.41
51.21
43.87
35.59
27.33
19.45
11.77
3.76
-5.11
-14.95
-25.40
-35.71
-45.07
-52.97
-59.42
-65.03
-70.83
-78.05
-87.62
-99.65
-112.98
-125.04
-132.25
-130.99
-118.79
-95.37
-62.87
-25.35
12.37
46.00
72.64
91.08
101.41
104.53
101.59
93.69
81.95
67.52
51.76
36.20
22.38
11.67
5.01
2.75
4.66
10.03
17.82
26.80
35.65
43.06
47.94
49.58
47.85
43.26
36.64
28.93
20.71
12.16
3.08
-6.74
-17.30
-28.21
-38.87
-48.63
-57.17
-64.63
-71.62
-79.10
-88.12
-99.44
-112.93
-127.16
-139.30
-145.51
-142.12
-126.85
-99.85
-63.86
-23.52
16.01
50.43
77.13
95.26
105.23
108.03
104.79
96.61
84.71
70.53
55.71
41.92
30.55
22.50
18.14
17.38
19.86
25.08
32.35
40.72
48.95
55.59
59.30
59.23
55.32
48.26
39.22
29.39
19.52
9.82
0.02
-10.22
-21.08
-32.32
-43.43
-53.78
-62.93
-70.80
-77.76
-84.64
-92.60
-102.84
-115.98
-131.45
-146.99
-158.81
-162.46
-154.24
-132.60
-98.90
-57.18
-12.93
28.50
63.09
88.77
105.20
113.12
113.79
108.62
99.08
86.80
73.44
60.64
49.73
41.52
36.30
33.88
33.87
35.90
39.71
45.06
51.53
58.35
64.33
68.09
68.44
64.79
57.40
47.26
35.83
24.41
13.84
4.21
-4.99
-14.47
-24.73
-35.78
-47.06
-57.70
-66.92
-74.42
-80.52
-86.21
-92.90
-101.99
-114.29
-129.32
-144.93
-157.38
-162.18
-155.42
-135.28
-102.81
-61.85
-17.87
23.65
58.61
84.89
102.20
111.33
113.44
109.71
101.30
89.57
76.13
62.71
50.93
41.98
36.43
34.28
35.09
38.30
43.31
49.67
56.85
64.15
70.57
74.86
75.83
72.73
65.59
55.31
43.38
31.36
20.38
10.78
2.09
-6.62
-16.21
-27.08
-38.93
-50.85
-61.72
-70.66
-77.38
-82.39
-86.93
-92.65
-101.08
-112.99
-127.77
-143.08
-155.09
-159.32
-152.09
-131.75
-99.53
-59.21
-16.07
24.65
58.99
84.83
101.71
110.24
111.49
106.71
97.29
84.89
71.42
58.81
48.70
42.13
39.40
40.10
43.39
48.29
53.98
59.88
65.62
70.82
74.91
77.13
76.65
72.88
65.73
55.78
44.18
32.34
21.52
12.37
4.75
-2.17
-9.51
-18.13
-28.21
-39.07
-49.53
-58.36
-64.88
-69.20
-72.31
-75.76
-81.20
-89.94
-102.33
-117.39
-132.57
-144.07
-147.70
-140.09
-119.97
-88.71
-50.12
-9.30
28.76
60.40
83.72
98.47
105.38
105.59
100.29
90.75
78.41
64.95
52.17
41.69
34.63
31.43
31.87
35.26
40.68
47.30
54.46
61.58
67.95
72.65
74.60
72.88
67.16
57.99
46.66
34.81
23.85
14.43
6.33
-1.26
-9.27
-18.23
-28.05
-38.07
-47.37
-55.15
-61.07
-65.41
-69.06
-73.35
-79.69
-89.03
-101.30
-114.94
-126.87
-133.21
-130.28
-115.93
-90.39
-56.35
-18.24
19.11
51.64
76.86
93.92
103.17
105.56
102.21
94.26
82.94
69.77
56.46
44.82
36.36
31.98
31.76
35.00
40.50
46.98
53.41
59.20
64.08
67.88
70.30
70.75
68.51
63.06
54.39
43.19
30.82
18.81
8.45
0.24
-6.17
-11.86
-18.04
-25.61
-34.65
-44.50
-54.02
-62.13
-68.27
-72.61
-76.00
-79.72
-85.13
-93.34
-104.81
-118.93
-133.71
-145.85
-151.33
-146.50
-129.39
-100.60
-63.26
-22.23
17.31
51.20
77.07
94.32
103.60
106.12
103.18
96.05
86.03
74.52
63.01
52.94
45.43
41.14
40.14
42.04
46.13
51.58
57.58
63.40
68.40
72.03
73.79
73.33
70.45
65.17
57.75
48.67
38.58
28.23
18.29
9.26
1.34
-5.61
-12.03
-18.45
-25.35
-32.97
-41.14
-49.43
-57.21
-63.91
-69.26
-73.42
-76.97
-80.91
-86.37
-94.42
-105.53
-119.08
-133.02
-143.96
-147.87
-141.28
-122.54
-92.63
-55.01
-14.65
23.40
55.27
78.90
94.05
101.65
103.12
99.91
93.23
84.15
73.73
63.13
53.55
46.10
41.57
40.22
41.79
45.60
50.79
56.55
62.16
67.03
70.53
72.08
71.26
67.91
62.30
55.00
46.71
38.04
29.40
20.99
12.93
5.32
-1.72
-8.16
-14.15
-20.09
-26.43
-33.47
-41.20
-49.18
-56.75
-63.24
-68.33
-72.19
-75.48
-79.26
-84.65
-92.63
-103.53
-116.63
-129.91
-140.12
-143.50
-136.86
-118.80
-90.30
-54.67
-16.53
19.47
49.75
72.38
86.92
93.94
94.47
89.73
81.00
69.71
57.40
45.61
35.64
28.41
24.34
23.36
25.07
28.89
34.25
40.59
47.28
53.57
58.50
61.05
60.40
56.22
48.86
39.35
29.03
19.15
10.41
2.83
-4.20
-11.43
-19.42
-28.20
-37.25
-45.82
-53.17
-58.98
-63.46
-67.31
-71.62
-77.55
-85.90
-96.65
-108.51
-118.90
-124.42
-121.81
-109.10
-86.42
-56.11
-22.06
11.40
40.63
63.39
78.94
87.56
90.10
87.50
80.62
70.38
57.82
44.28
31.31
20.44
12.93
9.42
9.87
13.59
19.45
26.21
32.77
38.28
42.17
44.05
43.72
41.05
36.05
28.90
19.93
9.60
-1.50
-12.76
-23.60
-33.54
-42.27
-49.76
-56.24
-62.23
-68.42
-75.68
-84.66
-95.57
-107.68
-119.10
-127.02
-128.25
-120.33
-102.44
-75.88
-43.75
-10.13
21.09
47.07
66.35
78.69
84.58
84.76
79.98
71.01
58.79
44.56
29.96
16.79
6.74
0.96
-0.31
2.28
7.40
13.55
19.53
24.67
28.73
31.64
33.12
32.65
29.61
23.56
14.56
3.29
-9.13
-21.51
-32.91
-42.89
-51.61
-59.65
-67.90
-77.32
-88.69
-102.23
-117.22
-131.67
-142.50
-146.15
-139.67
-121.76
-93.45
-57.88
-19.47
17.33
49.05
73.74
90.78
100.49
103.55
100.80
93.18
81.89
68.45
54.55
41.91
31.90
25.38
22.57
23.04
25.96
30.28
35.04
39.48
43.13
45.69
46.86
46.22
43.27
37.50
28.71
17.17
3.66
-10.72
-24.82
-37.77
-49.18
-59.16
-68.25
-77.35
-87.45
-99.51
-113.97
-130.29
-146.53
-159.40
-164.94
-159.65
-141.76
-112.00
-73.60
-31.31
9.86
45.82
74.15
94.04
105.94
110.93
110.38
105.68
98.21
89.25
79.92
71.13
63.55
57.64
53.72
52.00
52.58
55.28
59.62
64.73
69.49
72.75
73.54
71.38
66.30
58.83
49.75
39.82
29.55
19.11
8.38
-2.81
-14.54
-26.64
-38.64
-49.96
-60.15
-69.06
-77.08
-85.17
-94.65
-106.70
-121.65
-138.29
-153.67
-163.56
-163.58
-150.75
-124.67
-87.85
-45.06
-1.85
36.92
68.18
90.84
105.36
113.06
115.39
113.64
108.92
102.20
94.45
86.69
79.83
74.67
71.68
70.95
72.20
74.86
78.23
81.70
84.79
87.17
88.56
88.61
86.87
82.91
76.45
67.59
56.81
44.97
33.05
21.93
12.08
3.51
-4.21
-11.74
-19.73
-28.59
-38.25
-48.26
-57.87
-66.36
-73.26
-78.67
-83.21
-88.04
-94.55
-104.02
-117.07
-133.14
-150.09
-164.31
-171.46
-167.58
-150.58
-121.02
-82.18
-39.12
2.75
39.10
67.45
87.19
99.05
104.45
104.87
101.71
96.17
89.38
82.37
76.04
71.10
67.97
66.82
67.51
69.76
73.17
77.35
81.85
86.15
89.59
91.40
90.95
87.82
82.14
74.46
65.61
56.41
47.40
38.73
30.26
21.76
13.12
4.53
-3.67
-11.07
-17.43
-22.92
-28.04
-33.50
-39.87
-47.27
-55.29
-63.13
-69.96
-75.35
-79.54
-83.46
-88.47
-95.97
-106.84
-120.97
-136.84
-151.45
-160.78
-160.85
-148.87
-124.46
-89.89
-49.59
-8.86
27.61
56.78
77.51
90.26
96.34
97.18
94.09
88.13
80.34
71.81
63.65
56.91
52.40
50.51
51.20
54.00
58.25
63.19
68.14
72.57
76.01
78.01
78.16
76.11
71.71
65.10
56.76
47.41
37.81
28.59
20.13
12.53
5.63
-0.81
-7.11
-13.54
-20.30
-27.43
-34.77
-41.97
-48.60
-54.30
-58.91
-62.64
-66.06
-70.08
-75.75
-83.97
-95.03
-108.20
-121.42
-131.52
-134.95
-128.79
-111.88
-85.23
-51.92
-16.17
17.82
46.77
68.88
83.59
91.27
92.68
88.79
80.65
69.55
56.99
44.62
33.99
26.30
22.22
21.78
24.55
29.73
36.38
43.52
50.17
55.46
58.55
58.92
56.30
50.90
43.32
34.45
25.25
16.43
8.32
0.78
-6.69
-14.64
-23.34
-32.57
-41.71
-49.96
-56.77
-62.13
-66.63
-71.37
-77.55
-86.01
-96.74
-108.60
-119.29
-125.78
-125.05
-115.07
-95.47
-67.86
-35.46
-2.21
28.18
53.04
71.06
82.13
86.92
86.39
81.48
73.04
61.95
49.33
36.52
25.06
16.31
11.21
10.00
12.26
17.03
23.11
29.32
34.65
38.38
40.08
39.59
36.98
32.42
26.14
18.34
9.23
-0.90
-11.67
-22.58
-33.08
-42.70
-51.22
-58.71
-65.54
-72.39
-80.10
-89.45
-100.86
-113.85
-126.80
-136.91
-140.78
-135.40
-119.22
-92.84
-59.00
-21.83
14.25
45.65
70.17
87.08
96.74
100.11
98.38
92.76
84.40
74.37
63.67
53.25
43.97
36.56
31.61
29.47
30.15
33.26
38.06
43.52
48.56
52.18
53.70
52.77
49.39
43.83
36.47
27.67
17.72
6.88
-4.64
-16.56
-28.51
-40.02
-50.66
-60.11
-68.34
-75.67
-82.87
-90.99
-101.07
-113.59
-127.86
-141.72
-151.80
-154.29
-146.22
-126.53
-96.56
-59.75
-20.60
16.55
48.43
73.22
90.45
100.52
104.36
103.12
98.08
90.57
81.79
72.79
64.35
57.00
51.06
46.79
44.37
43.93
45.52
48.94
53.71
59.00
63.71
66.64
66.81
63.74
57.51
48.86
38.90
28.75
19.14
10.24
1.62
-7.44
-17.51
-28.68
-40.47
-52.01
-62.38
-71.04
-78.09
-84.23
-90.71
-98.89
-109.84
-123.65
-139.01
-153.02
-161.68
-160.99
-148.28
-123.27
-88.40
-48.03
-7.24
29.63
59.77
82.11
96.84
104.80
107.04
104.66
98.80
90.74
81.74
72.95
65.19
58.86
54.08
50.77
48.85
48.37
49.39
51.94
55.75
60.23
64.40
67.11
67.29
64.35
58.30
49.89
40.26
30.60
21.67
13.58
5.79
-2.55
-12.13
-23.12
-35.10
-47.12
-58.15
-67.46
-74.88
-80.90
-86.64
-93.51
-102.79
-115.06
-129.62
-144.22
-155.24
-158.57
-150.92
-130.96
-99.97
-61.58
-20.65
18.02
50.87
76.02
93.13
102.88
106.38
104.84
99.43
91.31
81.67
71.66
62.29
54.27
48.05
43.74
41.35
40.84
42.20
45.38
50.07
55.58
60.80
64.39
65.19
62.57
56.67
48.37
38.94
29.55
20.87
12.87
4.96
-3.67
-13.56
-24.66
-36.33
-47.56
-57.39
-65.33
-71.59
-77.04
-82.98
-90.78
-101.34
-114.59
-129.05
-141.83
-149.10
-147.15
-133.67
-108.63
-74.51
-35.59
3.26
37.88
65.62
85.48
97.69
103.10
102.81
97.90
89.45
78.59
66.49
54.31
43.14
33.90
27.32
23.82
23.52
26.14
31.04
37.31
43.86
49.58
53.57
55.22
54.31
51.02
45.69
38.73
30.46
21.04
10.60
-0.61
-12.21
-23.62
-34.35
-44.08
-52.87
-61.19
-69.85
-79.75
-91.62
-105.49
-120.23
-133.43
-141.74
-141.71
-130.98
-109.21
-78.38
-42.28
-5.42
28.22
55.94
76.57
90.08
97.04
98.18
94.27
86.11
74.72
61.35
47.46
34.52
23.75
16.04
11.77
10.82
12.70
16.58
21.51
26.58
31.03
34.33
36.15
36.24
34.35
30.23
23.71
14.90
4.33
-7.13
-18.44
-28.79
-37.81
-45.73
-53.21
-61.16
-70.51
-81.91
-95.46
-110.39
-124.80
-135.74
-139.75
-133.91
-116.87
-89.57
-55.12
-17.93
17.57
48.03
71.65
87.99
97.42
100.53
97.93
90.23
78.35
63.63
47.77
32.58
19.68
10.15
4.43
2.31
3.10
5.97
10.17
15.17
20.57
25.90
30.43
33.13
32.92
29.01
21.31
10.49
-2.20
-15.22
-27.33
-37.87
-46.90
-55.12
-63.70
-73.93
-86.81
-102.56
-120.15
-137.08
-149.68
-154.00
-146.96
-127.49
-97.02
-59.10
-18.45
20.39
53.99
80.37
98.89
109.76
113.63
111.38
104.09
93.02
79.55
65.17
51.30
39.22
29.97
24.15
21.86
22.64
25.62
29.77
34.19
38.21
41.45
43.56
44.14
42.62
38.41
31.11
20.82
8.18
-5.68
-19.53
-32.32
-43.59
-53.48
-62.68
-72.18
-83.07
-96.24
-112.01
-129.72
-147.32
-161.46
-168.00
-163.22
-145.08
-114.14
-73.59
-28.49
15.68
54.37
84.73
105.82
118.11
122.82
121.35
115.02
105.08
92.78
79.40
66.28
54.68
45.60
39.69
37.13
37.72
40.87
45.75
51.34
56.56
60.46
62.30
61.71
58.58
53.07
45.38
35.72
24.31
11.45
-2.40
-16.68
-30.69
-43.84
-55.73
-66.30
-75.90
-85.30
-95.58
-107.92
-122.99
-140.30
-157.72
-171.52
-177.21
-170.85
-150.53
-117.18
-74.49
-27.82
17.25
56.23
86.42
106.92
118.23
121.71
119.12
112.41
103.37
93.57
84.09
75.61
68.46
62.78
58.71
56.45
56.22
58.17
62.20
67.79
73.89
79.09
81.80
80.70
75.18
65.65
53.44
40.48
28.62
18.97
11.53
5.28
-1.41
-9.98
-21.04
-34.07
-47.69
-60.14
-70.13
-77.35
-82.72
-88.10
-95.70
-107.17
-122.71
-140.55
-156.89
-166.87
-165.84
-151.00
-122.40
-83.01
-37.93
7.17
47.40
79.62
102.52
116.29
122.02
121.17
115.33
106.08
94.99
83.54
73.11
64.74
59.14
56.52
56.67
58.98
62.73
67.22
71.94
76.54
80.72
84.02
85.80
85.27
81.75
74.89
64.94
52.76
39.66
27.00
15.72
6.08
-2.42
-10.78
-19.99
-30.58
-42.37
-54.51
-65.87
-75.46
-82.86
-88.32
-92.75
-97.54
-104.26
-114.27
-128.14
-144.99
-162.16
-175.40
-179.88
-171.60
-148.92
-113.28
-68.86
-21.41
23.46
61.51
90.54
110.15
121.14
124.79
122.47
115.55
105.41
93.53
81.49
70.75
62.48
57.38
55.60
56.78
60.24
65.13
70.65
76.15
81.07
84.95
87.27
87.45
84.96
79.46
70.96
60.01
47.57
34.83
22.89
12.45
3.67
-3.84
-10.83
-18.15
-26.47
-36.01
-46.46
-57.03
-66.80
-75.03
-81.44
-86.42
-90.92
-96.28
-103.89
-114.77
-129.03
-145.29
-160.55
-170.49
-170.59
-157.60
-130.73
-92.30
-47.08
-0.97
40.72
74.40
98.55
113.37
119.96
119.70
113.90
103.88
91.09
77.21
64.01
53.13
45.78
42.48
43.08
46.83
52.62
59.28
65.82
71.52
75.94
78.77
79.72
78.49
74.82
68.55
59.85
49.21
37.42
25.45
14.21
4.32
-4.03
-11.12
-17.61
-24.28
-31.71
-40.03
-48.85
-57.42
-64.96
-70.97
-75.45
-79.01
-82.68
-87.75
-95.47
-106.59
-120.83
-136.45
-150.21
-157.93
-155.61
-140.74
-113.33
-76.03
-33.44
9.14
47.06
77.19
98.17
110.07
113.90
111.00
102.84
90.88
76.59
61.54
47.36
35.57
27.35
23.29
23.30
26.72
32.57
39.85
47.64
55.11
61.35
65.38
66.25
63.40
56.90
47.65
37.06
26.56
17.12
8.87
1.20
-6.80
-15.84
-25.97
-36.56
-46.61
-55.17
-61.81
-66.77
-70.95
-75.64
-82.09
-91.09
-102.47
-114.72
-125.12
-130.11
-126.40
-112.05
-87.30
-54.65
-18.20
17.54
48.85
73.42
90.39
99.88
102.45
98.80
89.67
76.06
59.41
41.60
24.70
10.67
0.97
-3.72
-3.57
0.49
7.11
14.87
22.57
29.34
34.67
38.19
39.54
38.29
34.08
26.83
16.95
5.32
-6.81
-18.28
-28.32
-36.78
-44.14
-51.23
-59.00
-68.26
-79.44
-92.38
-106.04
-118.34
-126.34
-126.89
-117.53
-97.54
-68.36
-33.33
3.23
37.21
65.59
86.80
100.45
106.81
106.38
99.78
87.86
71.98
53.98
36.02
20.19
8.06
0.39
-2.92
-2.63
0.16
4.41
9.36
14.50
19.41
23.52
25.98
25.78
22.09
14.60
3.84
-9.02
-22.41
-34.96
-45.86
-55.09
-63.35
-71.79
-81.71
-94.18
-109.51
-126.79
-143.63
-156.30
-160.60
-153.11
-132.45
-100.03
-59.67
-16.56
24.25
59.05
85.88
104.30
114.70
117.76
114.18
104.86
91.04
74.47
57.23
41.39
28.69
20.15
15.97
15.57
17.89
21.74
26.10
30.36
34.27
37.61
39.98
40.60
38.48
32.74
23.15
10.30
-4.44
-19.39
-33.13
-44.94
-54.94
-63.92
-73.10
-83.71
-96.81
-112.79
-131.00
-149.31
-164.19
-171.28
-166.65
-148.19
-116.55
-75.17
-29.39
15.18
53.91
84.09
104.89
116.86
121.25
119.50
113.01
103.08
90.97
77.92
65.14
53.80
44.92
39.24
37.05
38.13
41.73
46.78
52.09
56.63
59.63
60.67
59.52
56.03
50.16
41.93
31.49
19.19
5.59
-8.63
-22.73
-36.05
-48.16
-58.95
-68.65
-77.88
-87.58
-98.86
-112.61
-128.94
-146.58
-162.66
-173.05
-173.42
-160.69
-134.21
-96.26
-51.41
-5.30
36.92
71.63
97.09
113.20
120.92
121.71
117.20
109.05
98.84
88.03
77.86
69.25
62.76
58.63
56.83
57.22
59.53
63.40
68.27
73.31
77.47
79.62
78.84
74.72
67.53
58.10
47.48
36.57
25.78
15.04
3.94
-7.91
-20.54
-33.59
-46.30
-57.88
-67.77
-75.92
-82.94
-89.99
-98.51
-109.78
-124.13
-140.39
-155.56
-165.32
-165.17
-151.97
-125.24
-87.51
-43.68
0.49
39.99
71.68
94.42
108.66
115.58
116.49
112.58
105.03
95.18
84.50
74.49
66.36
60.83
58.06
57.69
59.12
61.79
65.25
69.23
73.47
77.51
80.58
81.72
79.99
74.82
66.30
55.25
42.99
30.95
20.16
10.96
2.91
-4.95
-13.60
-23.62
-34.86
-46.46
-57.24
-66.17
-72.84
-77.68
-81.86
-86.92
-94.42
-105.34
-119.60
-135.72
-150.75
-160.66
-161.38
-149.98
-125.79
-90.79
-49.23
-6.36
32.91
65.13
88.74
103.76
111.15
112.15
108.01
99.93
89.26
77.53
66.39
57.28
51.20
48.43
48.63
51.03
54.76
59.15
63.73
68.19
72.13
74.86
75.51
73.22
67.50
58.55
47.31
35.20
23.69
13.82
5.83
-0.83
-7.19
-14.29
-22.69
-32.24
-42.15
-51.35
-58.94
-64.58
-68.66
-72.14
-76.37
-82.61
-91.70
-103.62
-117.17
-129.83
-138.14
-138.48
-128.16
-106.44
-75.02
-37.60
1.08
36.59
65.75
87.02
100.24
106.09
105.52
99.61
89.54
76.75
62.97
50.05
39.62
32.82
30.05
30.95
34.67
40.09
46.17
52.11
57.32
61.38
63.90
64.46
62.64
58.22
51.27
42.19
31.77
20.97
10.76
1.79
-5.76
-12.24
-18.34
-24.85
-32.28
-40.64
-49.44
-57.85
-65.13
-70.84
-75.14
-78.66
-82.44
-87.65
-95.33
-105.97
-119.10
-132.93
-144.37
-149.57
-145.03
-128.77
-101.23
-65.32
-25.64
12.89
46.24
72.05
89.65
99.57
102.88
100.76
94.33
84.78
73.40
61.69
51.14
43.02
38.17
36.83
38.62
42.81
48.44
54.65
60.66
65.88
69.75
71.78
71.54
68.83
63.78
56.80
48.51
39.55
30.47
21.58
13.04
4.91
-2.80
-10.10
-17.12
-24.05
-31.16
-38.66
-46.55
-54.59
-62.27
-69.07
-74.61
-78.96
-82.61
-86.49
-91.74
-99.43
-110.04
-122.99
-136.29
-146.62
-150.10
-143.35
-124.85
-95.55
-58.78
-19.28
18.19
50.02
74.31
90.68
99.74
102.45
99.82
92.87
82.73
70.76
58.47
47.37
38.70
33.31
31.45
32.89
36.99
42.92
49.81
56.79
63.12
68.08
71.09
71.75
69.92
65.80
59.80
52.46
44.33
35.79
27.09
18.43
9.94
1.79
-5.88
-12.97
-19.55
-25.81
-32.12
-38.80
-45.97
-53.46
-60.82
-67.51
-73.15
-77.79
-81.92
-86.51
-92.67
-101.35
-112.78
-126.09
-139.04
-148.33
-150.26
-141.90
-122.14
-92.22
-55.53
-16.67
19.83
50.60
73.89
89.38
97.68
99.66
96.20
88.23
76.90
63.71
50.44
38.80
30.07
24.89
23.16
24.35
27.74
32.68
38.62
45.07
51.45
57.03
60.97
62.48
61.00
56.43
49.17
40.12
30.44
21.27
13.33
6.69
0.77
-5.37
-12.60
-21.28
-31.09
-41.17
-50.44
-58.11
-63.95
-68.37
-72.31
-77.00
-83.61
-92.83
-104.44
-117.00
-127.80
-133.41
-130.67
-117.68
-94.63
-63.79
-28.90
5.90
37.08
62.27
80.38
91.32
95.64
94.24
88.18
78.59
66.64
53.52
40.42
28.54
18.96
12.56
9.83
10.75
14.86
21.29
28.92
36.50
42.81
46.81
47.87
45.88
41.28
34.85
27.42
19.56
11.41
2.82
-6.49
-16.59
-27.22
-37.87
-47.87
-56.77
-64.43
-71.22
-77.87
-85.50
-95.17
-107.42
-121.60
-135.51
-145.53
-147.56
-138.36
-116.88
-84.91
-46.55
-6.96
29.18
58.81
80.71
95.06
102.63
104.24
100.50
92.09
79.94
65.36
49.99
35.53
23.45
14.72
9.70
8.15
9.44
12.78
17.40
22.72
28.22
33.35
37.36
39.41
38.61
34.41
26.77
16.31
4.17
-8.33
-20.02
-30.28
-39.10
-47.08
-55.16
-64.35
-75.61
-89.45
-105.66
-122.88
-138.41
-148.59
-149.65
-138.93
-115.97
-82.85
-43.69
-3.47
33.33
63.59
85.84
99.89
106.23
105.63
99.02
87.57
72.85
56.70
41.04
27.45
16.93
9.77
5.75
4.41
5.37
8.44
13.41
19.80
26.60
32.26
35.03
33.54
27.35
17.16
4.56
-8.53
-20.51
-30.68
-39.44
-48.00
-58.04
-71.10
-87.94
-107.93
-128.74
-146.49
-156.55
-154.86
-139.35
-110.78
-72.61
-30.07
11.45
47.63
75.87
95.24
105.86
108.46
104.05
93.95
79.78
63.51
47.09
32.25
20.26
11.85
7.29
6.51
9.14
14.53
21.69
29.33
35.89
39.86
40.12
36.15
28.25
17.40
4.95
-7.76
-19.87
-31.15
-42.18
-54.11
-68.24
-85.31
-104.77
-124.29
-139.94
-147.06
-141.75
-122.30
-89.97
-48.84
-4.60
37.02
71.67
97.06
112.84
119.94
119.78
113.74
103.15
89.36
73.92
58.57
45.01
34.62
28.15
25.76
27.01
31.13
37.10
43.75
49.74
53.67
54.34
51.05
43.82
33.40
21.06
8.11
-4.44
-16.24
-27.61
-39.47
-52.99
-69.05
-87.54
-106.82
-123.63
-133.65
-132.71
-118.28
-90.53
-52.53
-9.46
32.87
69.56
97.56
115.81
124.78
125.67
119.89
108.83
94.04
77.29
60.58
45.89
34.84
28.29
26.31
28.20
32.83
38.88
45.03
50.03
52.81
52.58
48.93
42.01
32.49
21.38
9.81
-1.38
-11.83
-21.77
-32.01
-43.61
-57.40
-73.38
-90.08
-104.50
-112.63
-110.61
-96.18
-69.68
-34.23
5.20
43.20
75.46
99.55
114.79
121.73
121.29
114.46
102.34
86.48
68.97
52.23
38.51
29.28
24.94
24.82
27.65
32.06
36.93
41.57
45.49
48.09
48.53
45.85
39.26
28.67
14.86
-0.57
-15.72
-28.97
-39.64
-48.12
-55.85
-64.69
-76.28
-91.20
-108.45
-125.20
-137.36
-140.54
-131.57
-109.59
-76.61
-37.01
3.67
40.38
69.67
90.14
102.13
106.87
105.75
99.91
90.30
77.99
64.47
51.59
41.26
34.96
33.19
35.38
40.10
45.56
50.22
53.17
54.18
53.46
51.33
47.84
42.71
35.57
26.15
14.64
1.79
-11.28
-23.39
-33.70
-41.97
-48.61
-54.52
-60.79
-68.48
-78.34
-90.52
-104.38
-118.14
-128.96
-133.42
-128.40
-112.24
-85.46
-50.96
-13.21
22.97
53.71
76.85
91.96
99.89
101.97
99.55
93.80
85.83
76.84
68.15
60.98
56.23
54.25
54.82
57.30
60.91
64.89
68.66
71.70
73.57
73.80
72.06
68.21
62.44
55.24
47.22
39.01
31.02
23.42
16.14
9.03
1.95
-5.07
-11.89
-18.28
-24.10
-29.37
-34.32
-39.32
-44.69
-50.51
-56.61
-62.61
-68.10
-72.86
-77.04
-81.24
-86.42
-93.72
-103.92
-116.94
-131.33
-144.15
-151.55
-149.76
-136.45
-111.64
-77.89
-39.66
-1.94
31.05
56.72
74.27
84.23
87.79
86.31
81.04
73.20
64.06
55.02
47.43
42.34
40.29
41.20
44.43
49.05
54.07
58.72
62.47
65.05
66.24
65.90
63.84
59.96
54.32
47.26
39.33
31.20
23.40
16.19
9.60
3.51
-2.19
-7.53
-12.44
-16.88
-20.92
-24.78
-28.71
-32.86
-37.18
-41.44
-45.37
-48.82
-51.90
-55.03
-58.92
-64.34
-71.80
-81.22
-91.54
-100.72
-106.09
-105.09
-96.16
-79.26
-56.05
-29.36
-2.40
22.00
41.90
56.29
64.89
67.91
65.88
59.68
50.51
39.85
29.35
20.48
14.34
11.47
11.82
14.81
19.60
25.23
30.82
35.68
39.22
40.98
40.63
38.02
33.28
26.85
19.44
11.85
4.70
-1.70
-7.47
-12.95
-18.57
-24.58
-30.88
-37.12
-42.77
-47.39
-50.83
-53.37
-55.72
-58.82
-63.54
-70.31
-78.73
-87.40
-94.17
-96.56
-92.61
-81.45
-63.78
-41.59
-17.68
5.14
24.69
39.72
49.78
55.04
55.91
52.93
46.76
38.27
28.61
19.10
11.08
5.58
3.16
3.71
6.61
10.91
15.61
19.85
23.03
24.83
25.11
23.90
21.29
17.42
12.45
6.56
-0.05
-7.18
-14.58
-21.95
-29.00
-35.47
-41.24
-46.35
-51.01
-55.64
-60.80
-67.09
-74.89
-84.05
-93.55
-101.50
-105.43
-103.03
-92.97
-75.44
-52.31
-26.51
-1.23
20.92
38.40
50.73
58.19
61.40
61.07
57.92
52.71
46.24
39.33
32.73
27.05
22.75
20.15
19.39
20.39
22.78
25.95
29.13
31.55
32.66
32.19
30.15
26.68
21.94
16.04
9.09
1.18
-7.42
-16.36
-25.26
-33.74
-41.50
-48.43
-54.60
-60.37
-66.34
-73.21
-81.59
-91.59
-102.51
-112.67
-119.72
-121.12
-114.98
-100.67
-79.10
-52.58
-24.18
3.00
26.50
44.81
57.47
64.82
67.72
67.19
64.28
59.89
54.76
49.52
44.67
40.62
37.69
36.07
35.85
36.98
39.32
42.60
46.33
49.83
52.28
52.89
51.12
46.92
40.63
32.97
24.64
16.15
7.68
-0.88
-9.73
-19.00
-28.58
-38.10
-47.03
-54.84
-61.27
-66.48
-71.14
-76.35
-83.23
-92.44
-103.58
-114.94
-123.75
-126.86
-121.74
-107.39
-84.71
-56.28
-25.55
4.06
29.92
50.51
65.36
74.79
79.54
80.60
79.01
75.77
71.71
67.48
63.54
60.24
57.88
56.70
56.91
58.52
61.36
64.99
68.79
72.09
74.27
74.89
73.76
70.90
66.51
60.92
54.44
47.35
39.83
31.98
23.90
15.79
7.95
0.70
-5.78
-11.56
-16.97
-22.48
-28.51
-35.20
-42.34
-49.48
-56.10
-61.86
-66.75
-71.12
-75.70
-81.44
-89.26
-99.63
-112.06
-124.78
-134.91
-139.05
-134.35
-119.51
-95.32
-64.51
-30.99
1.30
29.29
51.30
66.90
76.61
81.38
82.28
80.34
76.48
71.61
66.54
61.94
58.32
55.95
54.88
55.04
56.33
58.57
61.54
64.85
67.99
70.32
71.23
70.32
67.53
63.14
57.67
51.65
45.47
39.27
32.99
26.48
19.64
12.58
5.59
-0.97
-6.80
-11.91
-16.59
-21.36
-26.66
-32.71
-39.32
-45.96
-52.07
-57.26
-61.54
-65.39
-69.62
-75.24
-83.09
-93.46
-105.71
-118.03
-127.61
-131.20
-126.12
-111.21
-87.37
-57.41
-25.26
5.20
31.04
50.81
64.39
72.52
76.23
76.45
73.96
69.45
63.68
57.47
51.70
47.07
43.97
42.46
42.37
43.47
45.54
48.37
51.72
55.15
58.09
59.90
60.11
58.52
55.22
50.50
44.72
38.20
31.17
23.86
16.49
9.30
2.50
-3.79
-9.63
-15.25
-20.94
-26.95
-33.32
-39.87
-46.18
-51.85
-56.62
-60.58
-64.20
-68.26
-73.62
-80.99
-90.48
-101.35
-111.84
-119.40
-121.25
-115.23
-100.57
-78.25
-50.78
-21.56
6.10
29.68
47.82
60.19
67.20
69.58
68.15
63.80
57.43
49.99
42.42
35.57
30.13
26.51
24.87
25.14
27.13
30.58
35.12
40.30
45.42
49.62
51.94
51.65
48.49
42.80
35.44
27.51
19.91
13.03
6.67
0.22
-6.97
-15.19
-24.22
-33.42
-42.01
-49.45
-55.65
-61.04
-66.43
-72.79
-80.88
-90.95
-102.36
-113.42
-121.53
-123.76
-117.78
-102.64
-79.33
-50.50
-19.75
9.41
34.39
53.83
67.46
75.64
78.98
78.15
73.91
67.08
58.64
49.59
40.87
33.20
27.16
23.12
21.33
21.84
24.45
28.69
33.73
38.57
42.23
43.93
43.31
40.46
35.76
29.77
22.96
15.61
7.79
-0.49
-9.25
-18.41
-27.73
-36.87
-45.47
-53.33
-60.54
-67.56
-75.25
-84.55
-96.00
-109.18
-122.30
-132.39
-135.93
-130.07
-113.60
-87.57
-55.06
-20.20
12.94
41.29
63.20
78.27
86.93
90.02
88.53
83.53
76.10
67.25
57.86
48.69
40.38
33.54
28.78
26.62
27.24
30.39
35.33
40.95
46.08
49.77
51.45
50.99
48.55
44.43
38.94
32.28
24.66
16.23
7.13
-2.47
-12.36
-22.29
-31.96
-41.07
-49.42
-57.09
-64.63
-72.99
-83.21
-95.85
-110.24
-124.16
-134.07
-136.07
-127.23
-106.77
-76.48
-40.28
-3.02
30.95
58.72
79.16
92.51
99.66
101.60
99.12
92.91
83.73
72.60
60.80
49.68
40.45
33.87
30.21
29.27
30.53
33.33
36.98
40.84
44.28
46.72
47.66
46.83
44.13
39.68
33.65
26.26
17.68
8.17
-1.88
-11.93
-21.43
-30.01
-37.67
-44.79
-52.12
-60.60
-71.07
-83.89
-98.49
-113.02
-124.41
-129.08
-124.01
-107.83
-81.55
-48.31
-12.46
21.68
50.90
73.46
88.97
97.82
100.72
98.47
91.95
82.21
70.50
58.14
46.40
36.34
28.72
23.87
21.77
22.03
24.07
27.17
30.67
34.02
36.82
38.70
39.31
38.27
35.20
29.91
22.49
13.40
3.35
-6.83
-16.49
-25.25
-33.04
-40.08
-46.82
-53.94
-62.24
-72.43
-84.67
-98.07
-110.48
-118.72
-119.49
-110.47
-91.30
-63.80
-31.51
1.45
31.47
56.19
74.58
86.52
92.38
92.57
87.65
78.41
66.10
52.31
38.73
26.82
17.49
11.04
7.27
5.74
6.09
8.07
11.53
16.17
21.35
26.05
29.07
29.34
26.31
20.14
11.62
1.97
-7.64
-16.37
-23.95
-30.68
-37.28
-44.75
-53.98
-65.45
-78.74
-92.33
-103.60
-109.43
-107.05
-95.03
-73.92
-46.14
-15.29
14.87
41.33
62.29
77.05
85.62
88.36
85.81
78.68
68.04
55.21
41.67
28.82
17.67
8.82
2.47
-1.41
-2.95
-2.37
0.03
3.69
7.78
11.20
12.86
11.94
8.18
1.95
-5.82
-14.06
-21.87
-28.84
-35.24
-41.86
-49.82
-60.17
-73.40
-88.86
-104.52
-117.15
-123.05
-119.24
-104.47
-79.85
-48.49
-14.55
17.87
45.78
67.50
82.51
90.95
93.25
90.02
82.14
70.84
57.68
44.30
32.05
21.85
14.06
8.63
5.33
3.94
4.39
6.60
10.30
14.80
18.88
21.06
20.03
15.12
6.59
-4.36
-16.10
-27.05
-36.39
-44.22
-51.60
-60.14
-71.40
-86.20
-104.02
-122.73
-138.75
-147.90
-146.52
-132.77
-107.22
-72.88
-34.26
3.92
37.79
65.00
84.59
96.60
101.59
100.35
93.86
83.41
70.62
57.26
45.00
35.02
27.81
23.22
20.73
19.75
19.99
21.45
24.24
28.14
32.38
35.59
36.20
32.97
25.50
14.44
1.26
-12.28
-24.75
-35.52
-44.86
-53.90
-64.16
-77.12
-93.56
-113.01
-133.32
-150.81
-160.99
-159.82
-145.12
-117.43
-80.01
-37.93
3.44
39.78
68.61
89.21
102.04
108.04
108.20
103.45
94.85
83.77
71.82
60.69
51.74
45.73
42.65
41.88
42.48
43.62
44.85
46.16
47.65
49.30
50.53
50.36
47.63
41.56
32.02
19.69
5.83
-8.21
-21.31
-32.96
-43.22
-52.75
-62.60
-74.04
-88.19
-105.44
-124.85
-143.79
-158.14
-163.33
-155.77
-134.15
-100.14
-58.04
-13.42
28.30
63.19
89.27
106.36
115.36
117.64
114.55
107.32
97.18
85.37
73.25
62.21
53.44
47.76
45.46
46.28
49.52
54.19
59.27
63.84
67.17
68.74
68.24
65.53
60.60
53.57
44.58
33.85
21.72
8.66
-4.73
-17.80
-30.00
-41.02
-50.87
-59.94
-68.98
-78.98
-91.08
-106.03
-123.64
-142.19
-158.29
-167.45
-165.33
-149.28
-119.41
-78.84
-32.83
12.78
52.99
84.69
106.70
119.38
123.93
121.86
114.69
104.00
91.43
78.67
67.29
58.57
53.24
51.39
52.58
56.05
61.05
66.91
73.07
78.86
83.40
85.61
84.51
79.59
71.12
60.13
48.05
36.22
25.37
15.49
5.93
-4.13
-15.20
-27.19
-39.40
-50.85
-60.61
-68.38
-74.57
-80.36
-87.40
-97.29
-110.87
-127.60
-145.07
-159.28
-165.50
-159.72
-140.13
-107.83
-66.67
-22.04
20.65
57.37
85.89
105.63
116.98
120.72
117.76
109.27
96.83
82.49
68.55
57.02
49.30
45.83
46.25
49.61
54.84
60.98
67.32
73.35
78.49
82.06
83.23
81.25
75.80
67.19
56.35
44.61
33.27
23.15
14.33
6.24
-2.14
-11.59
-22.44
-34.23
-45.97
-56.52
-65.05
-71.40
-76.16
-80.64
-86.46
-95.07
-107.12
-121.88
-136.91
-148.40
-152.05
-144.42
-124.20
-92.73
-53.79
-12.40
26.50
59.23
83.88
100.03
108.28
109.57
104.96
95.51
82.48
67.48
52.38
39.15
29.49
24.43
24.15
28.01
34.74
42.84
50.85
57.63
62.35
64.51
63.93
60.68
55.07
47.58
38.72
28.94
18.56
7.74
-3.34
-14.53
-25.51
-35.91
-45.42
-53.88
-61.45
-68.65
-76.42
-85.84
-97.64
-111.55
-125.81
-137.12
-141.38
-135.05
-116.43
-86.52
-48.81
-8.24
30.26
62.87
87.55
103.75
111.92
112.96
107.91
97.95
84.45
69.05
53.47
39.42
28.30
20.99
17.87
18.74
22.96
29.55
37.35
45.06
51.41
55.28
55.95
53.21
47.47
39.57
30.43
20.81
11.01
0.96
-9.65
-20.99
-32.97
-45.12
-56.79
-67.36
-76.51
-84.37
-91.67
-99.63
-109.65
-122.75
-138.74
-155.67
-169.74
-176.17
-170.65
-150.97
-118.00
-75.54
-29.20
15.29
53.52
83.01
103.11
114.35
117.81
114.75
106.61
95.00
81.71
68.52
56.98
48.15
42.54
40.17
40.68
43.63
48.56
55.03
62.47
70.00
76.38
80.18
80.17
75.75
67.25
55.88
43.31
31.08
20.11
10.39
1.18
-8.59
-19.73
-32.35
-45.85
-59.07
-70.89
-80.64
-88.42
-95.23
-102.67
-112.49
-125.89
-142.74
-161.03
-176.85
-185.18
-181.39
-162.87
-130.15
-86.91
-38.92
7.73
48.21
79.76
101.70
114.68
119.91
118.64
112.12
101.69
88.99
75.85
64.10
55.13
49.70
47.77
48.77
51.87
56.34
61.70
67.64
73.79
79.42
83.44
84.62
81.98
75.28
65.14
52.94
40.34
28.72
18.66
9.84
1.24
-8.28
-19.42
-32.08
-45.38
-58.08
-69.08
-77.85
-84.69
-90.61
-97.11
-105.81
-117.96
-133.77
-151.80
-168.74
-179.81
-180.05
-166.00
-137.09
-96.11
-48.47
-0.47
42.43
76.87
101.66
117.19
124.53
124.81
119.08
108.55
94.83
79.98
66.21
55.37
48.60
46.07
47.17
50.81
55.93
61.75
67.82
73.87
79.47
83.91
86.16
85.24
80.50
72.00
60.53
47.50
34.47
22.75
12.93
4.78
-2.64
-10.51
-19.79
-30.75
-42.85
-54.97
-65.83
-74.56
-81.02
-85.86
-90.37
-96.16
-104.67
-116.75
-132.01
-148.49
-162.65
-169.95
-166.11
-148.54
-117.42
-75.96
-29.46
16.12
55.80
86.57
107.46
119.02
122.48
119.17
110.36
97.42
81.94
65.85
51.13
39.51
32.03
28.97
29.89
33.95
40.23
47.89
56.16
64.21
70.95
75.17
75.75
72.11
64.56
54.24
42.76
31.60
21.55
12.52
3.71
-5.82
-16.61
-28.51
-40.66
-51.98
-61.55
-69.10
-75.11
-80.71
-87.39
-96.53
-108.77
-123.37
-137.94
-148.63
-151.12
-142.02
-120.14
-87.15
-47.12
-5.35
33.20
65.04
88.51
103.52
110.78
111.23
105.72
95.13
80.58
63.63
46.23
30.55
18.54
11.50
9.81
12.79
19.03
26.78
34.44
40.90
45.63
48.43
49.22
47.84
44.05
37.68
28.75
17.69
5.23
-7.70
-20.26
-31.83
-42.18
-51.44
-60.05
-68.67
-78.10
-89.17
-102.39
-117.49
-132.93
-145.75
-152.04
-148.04
-131.48
-102.65
-64.54
-22.07
19.43
55.58
83.79
103.24
114.32
117.92
115.02
106.55
93.61
77.59
60.23
43.43
29.01
18.43
12.50
11.30
14.18
19.93
27.08
34.14
39.96
43.77
45.22
44.25
40.96
35.49
28.02
18.70
7.78
-4.37
-17.21
-30.05
-42.22
-53.24
-62.96
-71.65
-80.05
-89.22
-100.35
-114.20
-130.61
-147.90
-162.83
-171.10
-168.52
-152.40
-122.70
-82.27
-36.19
9.65
50.08
81.77
103.43
115.47
119.19
116.16
107.81
95.48
80.51
64.46
49.02
35.87
26.37
21.27
20.67
23.96
30.08
37.69
45.43
52.07
56.67
58.63
57.71
54.03
47.90
39.70
29.84
18.66
6.50
-6.29
-19.27
-32.03
-44.17
-55.46
-65.82
-75.43
-84.76
-94.59
-105.96
-119.69
-135.83
-152.89
-167.64
-175.57
-172.21
-154.72
-123.14
-80.67
-32.77
14.42
55.80
88.22
110.60
123.35
127.64
124.84
116.35
103.74
88.73
73.17
58.79
46.99
38.66
34.23
33.67
36.61
42.33
49.77
57.63
64.51
69.15
70.70
68.85
63.85
56.36
47.18
37.02
26.33
15.24
3.72
-8.27
-20.63
-33.05
-45.04
-56.09
-65.92
-74.58
-82.63
-91.13
-101.37
-114.39
-130.14
-146.90
-161.09
-168.02
-163.23
-144.17
-111.31
-68.23
-20.63
25.37
64.81
94.80
114.55
124.75
126.84
122.40
112.93
99.89
84.82
69.38
55.24
43.93
36.51
33.43
34.48
38.91
45.58
53.27
60.75
66.95
70.93
71.93
69.58
64.00
55.84
46.01
35.34
24.36
13.09
1.35
-10.97
-23.62
-35.99
-47.36
-57.22
-65.52
-72.74
-79.77
-87.73
-97.69
-110.18
-124.63
-138.98
-149.73
-152.66
-144.16
-122.65
-89.31
-47.99
-4.10
37.00
71.26
96.56
112.57
120.04
120.06
113.74
102.16
86.60
68.76
50.77
34.91
23.15
16.73
15.80
19.51
26.29
34.38
42.19
48.65
53.17
55.58
55.83
53.84
49.50
42.70
33.49
22.21
9.53
-3.62
-16.32
-27.80
-37.69
-46.04
-53.35
-60.35
-68.01
-77.24
-88.66
-102.12
-116.25
-128.39
-134.95
-132.38
-118.39
-92.92
-58.36
-18.96
20.38
55.34
83.06
102.27
112.95
115.82
111.89
102.27
88.27
71.44
53.67
37.02
23.45
14.43
10.67
11.90
16.97
24.20
31.77
38.23
42.72
45.01
45.23
43.53
39.91
34.16
26.08
15.69
3.44
-9.82
-23.06
-35.44
-46.41
-55.93
-64.41
-72.50
-81.11
-91.16
-103.40
-117.95
-133.75
-148.29
-157.83
-158.31
-146.67
-122.04
-86.31
-43.75
0.24
40.55
73.50
97.30
111.82
117.92
116.91
110.20
99.22
85.51
70.77
56.70
44.82
36.19
31.29
29.95
31.60
35.48
40.86
47.08
53.42
58.98
62.65
63.34
60.35
53.75
44.36
33.54
22.55
12.15
2.32
-7.54
-18.12
-29.73
-42.06
-54.32
-65.58
-75.20
-83.08
-89.77
-96.36
-104.24
-114.69
-128.16
-143.68
-158.52
-168.57
-169.30
-157.37
-131.89
-95.02
-51.39
-6.69
33.94
67.07
91.23
106.54
113.91
114.51
109.54
100.30
88.37
75.59
63.78
54.43
48.38
45.71
45.89
48.12
51.62
55.87
60.58
65.49
70.14
73.77
75.34
73.92
68.95
60.59
49.69
37.62
25.76
15.12
5.97
-2.23
-10.53
-19.90
-30.80
-42.81
-54.82
-65.54
-74.06
-80.29
-85.05
-89.79
-96.17
-105.57
-118.55
-134.38
-150.76
-163.90
-169.33
-163.14
-143.41
-111.07
-69.80
-24.97
17.91
54.57
82.70
101.80
112.57
116.22
114.04
107.29
97.32
85.60
73.70
63.16
55.23
50.66
49.60
51.62
55.88
61.37
67.16
72.51
76.94
80.08
81.59
81.12
78.31
72.92
65.06
55.16
44.05
32.70
22.00
12.51
4.35
-2.82
-9.61
-16.69
-24.58
-33.44
-43.02
-52.80
-62.07
-70.22
-76.91
-82.23
-86.72
-91.43
-97.64
-106.65
-119.08
-134.25
-149.79
-161.76
-165.66
-157.75
-136.55
-103.43
-62.35
-18.67
22.42
57.10
83.36
100.80
110.01
111.98
107.83
98.82
86.45
72.55
59.09
47.86
40.15
36.45
36.45
39.27
43.89
49.40
55.26
61.12
66.61
71.11
73.72
73.54
70.01
63.19
53.83
43.17
32.47
22.67
14.08
6.35
-1.28
-9.64
-19.19
-29.81
-40.75
-50.97
-59.51
-65.91
-70.40
-73.93
-77.84
-83.58
-92.23
-103.97
-117.73
-131.00
-140.15
-141.38
-131.83
-110.71
-79.69
-42.49
-3.83
31.90
61.59
83.61
97.68
104.24
104.11
98.28
87.91
74.41
59.39
44.56
31.55
21.69
15.87
14.39
16.94
22.66
30.25
38.29
45.39
50.52
53.06
52.86
50.11
45.21
38.56
30.50
21.23
10.95
-0.07
-11.44
-22.64
-33.17
-42.66
-51.06
-58.66
-66.03
-73.99
-83.37
-94.82
-108.31
-122.73
-135.70
-143.80
-143.43
-131.99
-108.94
-76.18
-37.61
1.98
38.21
68.03
89.97
103.87
110.28
110.09
104.30
94.03
80.63
65.61
50.56
37.00
26.18
19.01
15.89
16.75
21.04
27.74
35.58
43.12
49.05
52.37
52.53
49.52
43.82
36.19
27.42
18.06
8.33
-1.83
-12.59
-23.98
-35.77
-47.50
-58.59
-68.58
-77.30
-85.03
-92.53
-100.97
-111.53
-124.82
-140.18
-155.24
-166.11
-168.40
-158.64
-135.64
-101.07
-59.09
-15.06
25.93
60.20
85.87
102.65
111.23
112.75
108.50
99.87
88.30
75.30
62.35
50.75
41.46
35.07
31.79
31.51
33.93
38.59
44.85
51.85
58.49
63.56
65.94
64.97
60.59
53.39
44.33
34.39
24.20
13.93
3.34
-7.89
-19.91
-32.47
-44.98
-56.79
-67.39
-76.72
-85.25
-93.97
-104.15
-116.89
-132.40
-149.40
-164.89
-174.57
-174.07
-160.38
-133.10
-94.77
-50.16
-4.91
36.04
69.35
93.59
108.76
115.78
115.88
110.47
101.01
89.04
76.07
63.53
52.57
44.12
38.75
36.71
37.95
42.08
48.36
55.78
63.06
68.86
72.03
71.88
68.33
61.87
53.40
43.75
33.50
22.81
11.56
-0.37
-12.93
-25.73
-38.20
-49.79
-60.20
-69.47
-78.14
-87.08
-97.38
-110.01
-125.18
-141.76
-156.99
-166.86
-167.05
-154.51
-128.57
-91.45
-47.68
-2.79
38.17
71.72
96.24
111.68
118.86
118.98
113.34
103.27
90.22
75.73
61.39
48.72
38.92
32.80
30.65
32.29
37.09
44.06
52.00
59.60
65.64
69.14
69.53
66.80
61.37
53.88
44.97
35.00
24.07
12.21
-0.47
-13.62
-26.65
-38.91
-49.95
-59.61
-68.22
-76.48
-85.48
-96.32
-109.62
-124.84
-139.81
-150.86
-153.67
-144.75
-122.79
-89.37
-48.66
-6.06
33.36
66.05
90.38
106.29
114.45
115.71
110.78
100.44
85.84
68.63
50.97
35.16
23.18
16.18
14.32
16.80
22.24
29.11
36.16
42.60
48.00
52.08
54.46
54.55
51.68
45.38
35.62
23.11
9.06
-5.01
-17.79
-28.62
-37.60
-45.56
-53.69
-63.25
-75.22
-89.97
-106.98
-124.45
-139.29
-147.62
-145.65
-131.03
-103.81
-66.68
-24.34
17.91
55.44
85.30
106.28
118.52
122.88
120.44
112.33
99.77
84.13
67.04
50.28
35.65
24.69
18.42
17.09
20.13
26.23
33.76
41.13
47.15
51.17
52.94
52.43
49.67
44.69
37.52
28.25
17.15
4.61
-8.84
-22.59
-36.04
-48.71
-60.29
-70.81
-80.66
-90.58
-101.62
-114.78
-130.59
-148.41
-165.94
-179.29
-183.80
-175.46
-152.44
-116.03
-70.42
-21.50
24.76
63.86
93.35
112.77
122.95
125.28
121.23
112.24
99.73
85.24
70.39
56.75
45.69
38.14
34.52
34.64
37.93
43.50
50.31
57.24
63.20
67.23
68.64
67.12
62.77
55.94
47.07
36.50
24.47
11.23
-2.84
-17.22
-31.27
-44.42
-56.35
-67.08
-77.00
-86.86
-97.70
-110.58
-126.11
-143.79
-161.42
-175.18
-180.39
-172.94
-150.84
-115.15
-69.90
-20.90
25.89
65.81
96.25
116.54
127.36
129.99
125.95
116.78
104.12
89.67
75.16
62.08
51.64
44.56
41.13
41.22
44.41
50.05
57.25
64.93
71.83
76.64
78.29
76.20
70.51
61.98
51.76
40.87
29.89
18.82
7.26
-5.16
-18.48
-32.23
-45.63
-57.88
-68.55
-77.79
-86.39
-95.65
-107.00
-121.46
-138.83
-157.21
-172.89
-181.08
-177.30
-158.91
-126.30
-82.95
-34.46
13.01
54.41
86.67
108.84
121.46
125.86
123.51
115.76
103.97
89.59
74.26
59.72
47.58
39.00
34.58
34.26
37.47
43.31
50.70
58.50
65.49
70.53
72.66
71.36
66.66
59.18
49.83
39.47
28.65
17.44
5.67
-6.79
-19.82
-32.95
-45.47
-56.80
-66.66
-75.31
-83.51
-92.42
-103.20
-116.48
-131.77
-147.00
-158.61
-162.37
-154.66
-133.82
-100.95
-59.77
-15.46
26.75
62.87
90.69
109.63
120.07
122.70
118.23
107.49
91.72
72.81
53.24
35.70
22.47
14.87
13.01
15.88
21.84
29.18
36.61
43.37
49.08
53.43
55.90
55.76
52.24
44.95
34.12
20.69
6.12
-8.07
-20.79
-31.65
-41.05
-49.92
-59.43
-70.69
-84.39
-100.49
-117.83
-133.98
-145.48
-148.53
-140.26
-119.71
-88.40
-49.94
-8.97
30.06
63.80
90.29
108.59
118.40
119.79
113.26
99.95
81.78
61.32
41.28
24.03
11.10
3.06
-0.39
-0.06
3.15
8.44
15.20
22.76
30.19
36.21
39.30
38.17
32.23
21.89
8.53
-5.90
-19.56
-31.36
-41.22
-50.12
-59.68
-71.58
-86.95
-105.63
-125.84
-144.11
-155.99
-157.11
-144.63
-118.22
-80.41
-35.91
9.71
51.43
85.77
111.00
126.84
133.71
132.36
123.70
109.04
90.25
69.76
50.15
33.62
21.48
13.94
10.36
9.75
11.19
14.16
18.40
23.52
28.71
32.58
33.52
30.17
22.02
9.60
-5.64
-21.78
-37.10
-50.56
-62.08
-72.54
-83.53
-96.83
-113.79
-134.44
-156.90
-177.22
-190.14
-190.55
-175.21
-144.06
-100.41
-49.93
1.02
47.08
84.84
112.89
131.23
140.56
141.81
136.08
124.75
109.62
92.80
76.45
62.44
51.99
45.51
42.67
42.57
44.12
46.41
48.92
51.44
53.81
55.64
56.07
53.93
48.08
37.91
23.77
6.91
-10.80
-27.56
-42.17
-54.44
-65.15
-75.69
-87.70
-102.56
-120.91
-142.12
-163.91
-182.34
-192.40
-189.39
-170.45
-135.75
-88.79
-35.52
17.34
64.01
100.88
126.61
141.75
147.85
146.70
140.01
129.30
116.01
101.62
87.62
75.38
65.95
59.92
57.30
57.60
60.02
63.60
67.36
70.44
72.14
71.93
69.54
64.88
58.05
49.16
38.33
25.62
11.24
-4.36
-20.47
-36.18
-50.69
-63.54
-74.77
-84.92
-95.02
-106.34
-120.08
-136.81
-155.73
-174.25
-188.04
-191.96
-181.68
-155.38
-114.64
-64.25
-10.79
39.30
81.27
112.76
133.45
144.35
146.94
142.82
133.66
121.26
107.56
94.36
83.03
74.39
68.61
65.48
64.58
65.54
68.06
71.90
76.65
81.61
85.72
87.71
86.38
81.06
71.91
59.85
46.40
33.11
21.04
10.41
0.66
-9.25
-20.23
-32.61
-45.92
-59.10
-70.88
-80.39
-87.58
-93.28
-99.06
-106.73
-117.73
-132.47
-149.67
-166.20
-177.52
-178.78
-166.33
-139.14
-99.36
-51.82
-2.65
42.48
79.58
106.81
124.13
132.50
133.23
127.68
117.31
103.79
89.04
75.03
63.43
55.30
50.88
49.71
50.91
53.60
57.12
61.15
65.48
69.74
73.22
74.84
73.51
68.52
59.92
48.62
36.16
24.09
13.46
4.43
-3.74
-12.25
-22.09
-33.55
-46.05
-58.34
-69.07
-77.38
-83.29
-87.66
-92.01
-98.02
-107.01
-119.34
-133.96
-148.28
-158.45
-160.31
-150.66
-128.36
-94.98
-54.38
-11.72
28.05
61.25
85.97
101.91
109.81
110.87
106.34
97.47
85.58
72.13
58.67
46.67
37.28
31.14
28.34
28.55
31.21
35.67
41.17
46.91
51.89
55.09
55.68
53.30
48.14
40.91
32.46
23.49
14.30
4.89
-4.93
-15.22
-25.80
-36.25
-46.07
-54.81
-62.29
-68.66
-74.40
-80.38
-87.60
-96.83
-108.00
-119.74
-129.29
-133.08
-127.89
-111.98
-86.00
-52.79
-16.61
18.15
48.11
71.32
87.19
95.91
97.97
93.97
84.61
70.92
54.44
37.08
20.95
7.82
-1.14
-5.64
-6.23
-3.90
0.23
5.25
10.59
15.79
20.38
23.64
24.76
23.03
18.15
10.43
0.67
-10.03
-20.61
-30.29
-38.72
-45.99
-52.63
-59.49
-67.59
-77.78
-90.30
-104.36
-117.86
-127.76
-130.70
-124.17
-107.28
-81.26
-49.05
-14.46
18.78
47.85
71.00
87.48
97.06
99.84
96.19
86.84
73.03
56.52
39.32
23.40
10.26
0.72
-5.12
-7.70
-7.65
-5.56
-1.90
2.91
8.28
13.32
16.81
17.53
14.62
7.95
-1.82
-13.39
-25.26
-36.29
-46.00
-54.72
-63.40
-73.33
-85.64
-100.80
-118.08
-135.30
-149.01
-155.21
-150.55
-133.46
-104.88
-68.01
-27.42
12.25
47.39
75.81
96.64
109.80
115.59
114.50
107.33
95.37
80.38
64.35
49.17
36.28
26.42
19.65
15.58
13.66
13.42
14.61
17.06
20.52
24.39
27.64
28.95
27.05
21.23
11.56
-0.98
-14.81
-28.31
-40.33
-50.59
-59.69
-68.92
-79.86
-93.83
-111.28
-131.25
-151.07
-166.64
-173.31
-167.27
-146.90
-113.52
-71.13
-25.22
18.78
56.86
86.89
108.43
121.91
128.03
127.45
120.95
109.70
95.42
80.14
65.81
53.80
44.71
38.34
34.16
31.60
30.41
30.63
32.34
35.37
39.04
42.19
43.39
41.36
35.36
25.44
12.50
-2.00
-16.53
-29.91
-41.67
-52.18
-62.46
-73.95
-88.04
-105.51
-125.93
-147.21
-165.60
-176.40
-175.20
-159.44
-129.35
-88.20
-41.29
5.59
47.61
81.83
107.15
123.78
132.47
134.08
129.54
119.95
106.79
91.86
77.06
64.07
54.01
47.25
43.48
41.98
41.96
42.84
44.35
46.42
48.91
51.36
52.93
52.58
49.37
42.78
32.93
20.57
6.83
-7.09
-20.24
-32.18
-43.08
-53.64
-64.96
-78.29
-94.65
-114.28
-135.97
-156.88
-172.62
-178.37
-170.31
-147.08
-110.47
-65.04
-16.77
28.61
67.01
96.39
116.56
128.28
132.65
130.71
123.47
112.13
98.19
83.38
69.43
57.74
49.20
44.11
42.24
43.03
45.72
49.49
53.58
57.26
59.90
60.99
60.11
56.98
51.38
43.23
32.66
20.10
6.28
-7.86
-21.42
-33.81
-44.90
-55.00
-64.80
-75.17
-87.08
-101.40
-118.47
-137.53
-156.19
-170.55
-175.93
-168.39
-146.19
-110.72
-66.25
-18.65
26.33
64.43
93.49
113.22
124.43
128.26
125.86
118.27
106.62
92.29
76.90
62.18
49.70
40.64
35.54
34.32
36.37
40.76
46.39
52.21
57.26
60.75
62.17
61.26
58.02
52.64
45.33
36.26
25.66
13.84
1.30
-11.38
-23.62
-35.07
-45.67
-55.68
-65.61
-76.19
-88.36
-102.97
-120.28
-139.22
-157.03
-169.35
-171.46
-159.83
-133.63
-95.27
-49.80
-3.28
38.88
73.16
98.15
114.07
121.90
122.77
117.71
107.74
94.10
78.31
62.13
47.35
35.51
27.59
23.93
24.19
27.47
32.67
38.67
44.47
49.31
52.58
53.84
52.79
49.31
43.48
35.59
26.04
15.26
3.67
-8.37
-20.45
-32.13
-43.04
-52.91
-61.85
-70.43
-79.72
-90.95
-105.01
-121.59
-138.70
-152.64
-158.83
-153.26
-134.03
-102.21
-61.71
-18.06
23.27
58.30
85.08
103.40
113.93
117.46
114.57
105.89
92.34
75.52
57.57
40.78
27.10
17.67
12.72
11.64
13.38
16.85
21.23
26.03
31.02
35.90
40.13
42.81
42.92
39.64
32.69
22.57
10.41
-2.35
-14.41
-24.99
-34.03
-42.08
-50.12
-59.29
-70.61
-84.66
-101.15
-118.48
-133.74
-143.09
-142.76
-130.39
-105.97
-72.04
-32.97
6.32
41.68
70.47
91.59
104.97
110.94
110.00
102.75
90.27
74.15
56.39
39.08
23.96
12.10
3.87
-0.89
-2.65
-1.83
1.20
6.12
12.46
19.33
25.43
29.27
29.52
25.52
17.58
6.86
-4.96
-16.28
-26.15
-34.50
-42.14
-50.37
-60.64
-74.05
-90.76
-109.56
-127.67
-141.05
-145.39
-137.53
-116.56
-84.44
-45.37
-4.53
33.41
65.28
89.64
106.25
115.39
117.42
112.78
102.30
87.42
70.14
52.65
36.77
23.69
13.76
6.75
2.25
-0.06
-0.18
1.98
6.32
12.19
18.31
22.90
24.23
21.17
13.62
2.59
-10.19
-22.82
-33.97
-43.24
-51.30
-59.56
-69.83
-83.73
-101.96
-123.64
-145.95
-164.29
-173.36
-168.75
-148.57
-114.30
-70.43
-23.04
22.02
60.59
90.58
111.58
123.99
128.36
125.27
115.60
100.82
83.07
64.74
47.98
34.29
24.23
17.61
13.82
12.26
12.59
14.76
18.72
24.15
30.11
35.02
37.07
34.71
27.28
15.31
0.42
-15.28
-29.87
-42.30
-52.66
-62.11
-72.50
-85.83
-103.53
-125.72
-150.46
-173.68
-189.75
-193.02
-179.69
-149.41
-105.52
-54.17
-2.27
44.39
82.34
110.41
128.90
138.64
140.40
134.98
123.48
107.66
89.79
72.35
57.43
46.34
39.44
36.20
35.70
36.97
39.37
42.69
46.92
51.80
56.51
59.62
59.41
54.53
44.55
30.28
13.54
-3.47
-18.93
-32.00
-43.01
-53.27
-64.59
-78.82
-97.25
-120.04
-145.63
-170.44
-189.24
-196.33
-187.33
-160.77
-118.98
-67.48
-13.45
36.46
77.64
108.08
127.97
138.58
141.39
137.64
128.37
114.77
98.40
81.24
65.42
52.81
44.63
41.19
41.93
45.66
50.95
56.54
61.50
65.38
67.93
68.93
68.02
64.68
58.40
48.89
36.38
21.59
5.70
-10.09
-24.85
-38.16
-50.18
-61.49
-73.04
-85.91
-101.28
-119.95
-141.70
-164.58
-184.63
-196.49
-194.86
-176.38
-141.15
-92.99
-38.39
15.40
62.31
98.73
123.54
137.48
142.11
139.17
130.29
117.04
101.18
84.51
68.88
55.83
46.39
41.03
39.67
41.86
46.91
53.90
61.74
69.14
74.77
77.48
76.61
72.11
64.59
55.02
44.40
33.34
21.99
10.15
-2.40
-15.68
-29.31
-42.66
-55.12
-66.35
-76.51
-86.30
-96.87
-109.49
-125.05
-143.25
-162.09
-177.70
-185.07
-179.61
-158.82
-123.46
-77.57
-27.28
21.06
62.53
94.49
116.38
128.91
133.20
130.38
121.53
107.98
91.44
73.96
57.61
44.13
34.74
29.97
29.80
33.67
40.61
49.33
58.25
65.81
70.70
72.18
70.14
65.13
57.94
49.33
39.72
29.19
17.65
5.07
-8.30
-21.93
-35.21
-47.66
-59.10
-69.74
-80.14
-91.13
-103.72
-118.72
-136.18
-154.70
-171.05
-180.60
-178.62
-161.92
-130.29
-86.94
-37.58
11.30
54.27
88.07
111.73
125.88
131.78
130.72
123.79
112.10
97.00
80.19
63.49
48.65
37.06
29.58
26.53
27.72
32.55
40.03
48.83
57.46
64.36
68.26
68.44
64.87
58.21
49.53
39.91
30.04
20.11
9.79
-1.38
-13.63
-26.78
-40.16
-52.94
-64.48
-74.64
-83.92
-93.43
-104.64
-118.89
-136.61
-156.60
-175.59
-188.64
-190.43
-177.06
-147.68
-105.02
-54.71
-3.50
42.64
79.91
106.86
123.85
132.01
132.61
126.85
116.00
101.68
85.86
70.56
57.53
47.86
41.91
39.38
39.73
42.40
47.04
53.39
61.01
68.99
75.94
80.20
80.36
75.81
67.03
55.49
43.11
31.54
21.53
12.75
4.03
-5.96
-18.06
-32.19
-47.34
-62.08
-75.10
-85.72
-94.17
-101.52
-109.41
-119.68
-133.77
-151.98
-172.70
-192.11
-204.72
-204.85
-188.62
-155.57
-109.17
-55.84
-2.86
43.76
80.58
106.83
123.47
131.94
133.44
128.79
118.82
104.88
88.94
73.35
60.30
51.37
47.11
47.15
50.53
56.05
62.73
69.88
77.00
83.58
88.88
91.96
91.89
88.08
80.58
70.09
57.82
45.15
33.29
22.93
14.09
6.20
-1.77
-10.87
-21.78
-34.44
-48.04
-61.26
-72.81
-81.99
-88.97
-94.76
-100.90
-109.04
-120.49
-135.77
-154.00
-172.58
-187.22
-192.74
-184.65
-160.82
-122.57
-74.60
-23.56
24.01
63.44
92.70
111.99
122.60
125.87
122.75
113.99
100.66
84.46
67.64
52.55
41.07
34.21
32.02
33.75
38.31
44.59
51.68
58.97
65.93
72.01
76.46
78.40
77.02
71.90
63.24
51.98
39.60
27.67
17.34
8.86
1.57
-5.92
-14.98
-26.41
-40.00
-54.57
-68.55
-80.56
-90.03
-97.33
-103.70
-110.71
-119.97
-132.70
-149.21
-168.37
-187.15
-200.77
-203.73
-191.62
-162.85
-119.66
-67.65
-14.04
34.54
73.76
102.11
120.13
129.30
131.05
126.46
116.55
102.72
86.90
71.28
57.84
47.97
42.19
40.30
41.63
45.39
50.87
57.54
64.92
72.44
79.23
84.16
86.01
83.78
77.14
66.66
53.76
40.33
28.10
18.06
10.02
2.81
-5.22
-15.45
-28.33
-43.16
-58.44
-72.45
-84.03
-92.99
-100.16
-107.04
-115.37
-126.72
-141.99
-160.84
-181.15
-198.91
-208.74
-205.38
-185.51
-149.20
-100.34
-45.50
8.01
54.28
89.98
114.42
128.62
134.22
132.72
125.39
113.54
98.82
83.17
68.61
56.74
48.53
44.16
43.23
45.11
49.16
54.90
61.89
69.52
76.81
82.39
84.73
82.67
75.86
65.11
52.15
39.08
27.55
18.09
9.99
1.72
-8.28
-20.75
-35.28
-50.50
-64.75
-76.81
-86.43
-94.39
-102.19
-111.68
-124.44
-141.18
-161.09
-181.32
-197.17
-202.98
-193.92
-167.79
-126.27
-74.57
-19.99
30.39
71.59
101.50
120.52
130.28
132.54
128.60
119.37
105.86
89.52
72.34
56.52
44.07
36.35
33.85
36.18
42.22
50.39
59.06
66.73
72.34
75.28
75.35
72.63
67.34
59.69
49.86
38.05
24.60
10.09
-4.71
-18.98
-32.08
-43.71
-54.03
-63.63
-73.39
-84.43
-97.85
-114.34
-133.57
-153.43
-170.01
-178.14
-173.06
-152.15
-116.29
-69.80
-19.22
28.84
69.43
100.08
120.50
131.51
134.22
129.56
118.47
102.32
83.11
63.29
45.38
31.38
22.43
18.61
19.13
22.64
27.78
33.50
39.27
44.82
49.79
53.39
54.34
51.25
43.22
30.47
14.45
-2.52
-18.11
-30.81
-40.50
-48.31
-56.17
-66.03
-79.33
-96.52
-116.73
-137.54
-155.08
-164.59
-161.67
-143.81
-111.49
-68.38
-20.32
26.40
66.78
97.96
119.15
130.78
133.75
128.95
117.43
100.78
81.21
61.34
43.62
29.83
20.69
15.93
14.69
15.93
18.83
22.88
27.74
32.90
37.39
39.82
38.72
33.11
23.01
9.60
-5.14
-19.13
-30.96
-40.40
-48.39
-56.72
-67.39
-81.82
-100.10
-120.49
-139.31
-151.64
-152.61
-139.04
-110.69
-70.62
-24.30
22.01
62.94
95.10
117.20
129.41
132.59
127.87
116.49
100.10
80.85
61.22
43.64
29.87
20.79
16.29
15.58
17.60
21.43
26.40
31.89
37.11
40.90
41.89
38.86
31.41
20.15
6.60
-7.29
-19.94
-30.63
-39.72
-48.45
-58.44
-71.14
-87.10
-105.43
-123.50
-137.25
-142.07
-134.29
-112.52
-78.39
-36.21
8.24
49.40
83.19
107.57
122.18
127.65
125.01
115.41
100.36
81.81
62.18
43.99
29.28
19.23
13.95
12.71
14.41
17.98
22.59
27.64
32.44
36.05
37.31
35.17
29.07
19.31
7.03
-6.13
-18.60
-29.38
-38.42
-46.52
-55.13
-65.76
-79.38
-95.76
-113.04
-127.75
-135.54
-132.47
-116.37
-87.84
-50.19
-8.53
31.78
66.48
93.05
110.62
119.36
119.85
112.97
99.95
82.68
63.63
45.49
30.59
20.32
14.93
13.68
15.28
18.43
22.19
26.06
29.76
32.94
34.90
34.61
31.08
23.78
13.04
0.12
-13.28
-25.54
-35.78
-44.15
-51.69
-59.97
-70.48
-84.06
-100.35
-117.49
-132.20
-140.33
-137.94
-122.65
-94.60
-56.72
-13.96
28.07
64.65
92.85
111.76
121.83
124.10
119.63
109.41
94.58
76.88
58.57
42.19
29.88
22.84
21.01
23.21
27.67
32.62
36.79
39.62
41.07
41.31
40.39
38.07
33.83
27.21
18.03
6.65
-6.05
-18.91
-30.83
-41.11
-49.68
-57.03
-64.07
-71.84
-81.29
-93.04
-107.03
-122.10
-135.85
-144.77
-145.03
-133.74
-110.07
-75.82
-35.11
6.76
44.78
75.43
97.10
109.82
114.48
112.24
104.17
91.46
75.58
58.50
42.44
29.53
21.24
18.06
19.43
23.96
29.96
35.88
40.67
43.88
45.46
45.55
44.13
41.00
35.80
28.31
18.63
7.30
-4.77
-16.64
-27.49
-36.97
-45.09
-52.25
-59.06
-66.32
-74.89
-85.50
-98.27
-112.31
-125.36
-134.09
-134.83
-124.82
-103.25
-71.75
-34.06
5.02
40.91
70.26
91.40
104.10
109.05
107.32
100.10
88.62
74.28
58.78
43.96
31.59
22.99
18.74
18.64
21.77
26.90
32.72
38.16
42.42
45.02
45.70
44.38
41.13
36.12
29.57
21.68
12.69
2.87
-7.44
-17.77
-27.69
-36.81
-44.97
-52.23
-58.92
-65.58
-72.92
-81.63
-91.96
-103.34
-114.07
-121.40
-122.23
-114.04
-95.91
-68.98
-36.24
-1.74
30.54
57.57
77.64
90.25
95.71
94.67
88.01
76.84
62.64
47.28
32.81
21.09
13.37
10.00
10.46
13.63
18.16
22.88
27.02
30.25
32.51
33.75
33.77
32.17
28.42
22.21
13.59
3.19
-7.93
-18.58
-27.83
-35.31
-41.30
-46.57
-52.11
-58.82
-67.29
-77.54
-88.85
-99.64
-107.58
-110.03
-104.79
-90.80
-68.71
-40.82
-10.48
18.75
43.92
63.20
75.86
81.97
82.04
76.80
67.21
54.57
40.51
26.85
15.19
6.61
1.43
-0.72
-0.49
1.45
4.63
8.74
13.38
17.90
21.29
22.46
20.61
15.54
7.79
-1.57
-11.28
-20.31
-28.17
-34.98
-41.46
-48.64
-57.50
-68.56
-81.45
-94.66
-105.68
-111.50
-109.48
-98.19
-77.96
-50.94
-20.49
9.68
36.39
57.48
72.04
80.06
82.13
79.05
71.71
61.07
48.27
34.65
21.63
10.53
2.32
-2.60
-4.38
-3.55
-0.90
2.77
6.65
9.93
11.81
11.54
8.65
3.16
-4.38
-13.03
-21.77
-29.88
-37.25
-44.47
-52.59
-62.66
-75.08
-89.09
-102.62
-112.61
-115.84
-109.90
-94.01
-69.41
-38.96
-6.43
24.47
50.83
70.94
84.15
90.66
91.15
86.57
78.01
66.77
54.21
41.72
30.48
21.31
14.55
10.18
7.99
7.72
9.11
11.80
15.10
18.05
19.50
18.46
14.46
7.65
-1.21
-11.10
-21.04
-30.39
-39.06
-47.52
-56.67
-67.58
-80.87
-96.17
-111.67
-124.25
-130.20
-126.41
-111.47
-86.28
-53.90
-18.55
15.52
45.08
68.28
84.54
94.11
97.61
95.87
89.89
80.92
70.43
59.89
50.46
42.80
37.03
32.86
29.95
28.03
27.07
27.16
28.23
29.95
31.55
31.97
30.17
25.52
17.90
7.90
-3.47
-14.98
-25.68
-35.09
-43.39
-51.39
-60.26
-71.22
-84.84
-100.64
-116.68
-129.74
-136.08
-132.47
-117.47
-91.90
-58.78
-22.40
12.85
43.53
67.70
84.77
95.14
99.66
99.34
95.26
88.50
80.23
71.50
63.25
56.12
50.55
46.69
44.58
44.04
44.74
46.21
47.85
49.09
49.42
48.50
46.13
42.27
36.93
30.16
22.02
12.62
2.21
-8.87
-20.11
-30.95
-40.90
-49.68
-57.34
-64.31
-71.41
-79.61
-89.80
-102.20
-115.97
-129.01
-138.17
-140.07
-132.13
-113.52
-85.56
-51.47
-15.42
18.48
47.19
69.03
83.70
91.80
94.41
92.75
88.05
81.47
74.09
66.88
60.67
55.95
52.94
51.54
51.43
52.25
53.73
55.72
58.08
60.57
62.65
63.57
62.50
58.84
52.50
43.96
34.20
24.33
15.27
7.39
0.46
-6.18
-13.31
-21.43
-30.58
-40.21
-49.46
-57.45
-63.71
-68.38
-72.25
-76.58
-82.73
-91.73
-103.69
-117.45
-130.50
-139.38
-140.57
-131.61
-111.94
-83.23
-48.96
-13.41
19.47
46.85
67.40
81.00
88.32
90.34
88.13
82.77
75.42
67.29
59.57
53.21
48.81
46.51
46.04
46.91
48.62
50.81
53.26
55.82
58.31
60.39
61.54
61.15
58.65
53.74
46.55
37.69
28.11
18.81
10.50
3.29
-3.22
-9.75
-16.98
-25.15
-34.01
-42.84
-50.82
-57.37
-62.37
-66.27
-69.94
-74.52
-81.04
-90.12
-101.59
-114.13
-125.36
-132.10
-131.26
-120.77
-100.37
-71.79
-38.37
-4.08
27.45
53.62
73.10
85.62
91.59
91.80
87.30
79.40
69.53
59.23
49.86
42.46
37.54
35.13
34.83
36.11
38.47
41.57
45.21
49.11
52.79
55.47
56.28
54.54
50.11
43.47
35.56
27.46
19.95
13.26
7.09
0.82
-6.14
-14.05
-22.68
-31.48
-39.74
-46.90
-52.75
-57.53
-61.90
-66.80
-73.18
-81.67
-92.20
-103.61
-113.68
-119.43
-117.99
-107.47
-87.77
-60.69
-29.48
2.10
30.70
54.07
71.18
81.93
86.83
86.53
81.80
73.46
62.57
50.41
38.44
28.09
20.51
16.32
15.50
17.52
21.48
26.40
31.42
35.87
39.24
41.16
41.36
39.74
36.37
31.51
25.44
18.44
10.68
2.28
-6.61
-15.70
-24.58
-32.82
-40.11
-46.44
-52.25
-58.33
-65.64
-74.82
-85.74
-97.07
-106.40
-110.74
-107.47
-95.27
-74.71
-48.05
-18.62
10.19
35.68
56.22
71.10
80.25
83.90
82.44
76.45
66.82
54.70
41.50
28.70
17.58
9.07
3.57
0.98
0.88
2.71
5.95
10.23
15.20
20.32
24.79
27.62
27.84
24.86
18.75
10.21
0.42
-9.36
-18.21
-25.80
-32.38
-38.68
-45.66
-54.23
-64.92
-77.61
-91.21
-103.63
-112.12
-113.88
-107.03
-91.21
-67.83
-39.62
-9.88
18.34
42.83
62.26
76.01
83.90
86.02
82.79
75.04
63.98
51.07
37.81
25.45
14.90
6.65
0.84
-2.58
-3.76
-2.92
-0.37
3.45
7.79
11.71
14.12
14.09
11.13
5.39
-2.41
-11.21
-19.96
-28.04
-35.40
-42.57
-50.46
-60.11
-72.19
-86.60
-102.08
-116.13
-125.45
-126.83
-118.20
-99.46
-72.57
-40.99
-8.61
21.25
46.39
65.83
79.34
87.10
89.41
86.78
79.91
69.76
57.47
44.14
30.79
18.27
7.38
-1.18
-6.78
-9.05
-8.04
-4.30
1.04
6.52
10.60
12.04
10.18
5.09
-2.51
-11.53
-20.85
-29.67
-37.77
-45.58
-54.17
-64.78
-78.27
-94.44
-111.52
-126.31
-134.87
-133.77
-121.26
-97.88
-66.35
-30.65
5.02
37.21
63.62
83.08
95.29
100.57
99.64
93.64
83.90
71.91
59.09
46.62
35.35
25.86
18.48
13.44
10.91
10.97
13.42
17.59
22.30
26.00
27.22
24.99
19.15
10.40
-0.01
-10.73
-20.78
-29.95
-38.79
-48.51
-60.55
-75.96
-94.70
-115.18
-134.12
-147.27
-150.47
-141.00
-118.57
-85.44
-45.85
-4.81
33.12
64.72
88.37
103.83
111.68
112.94
108.76
100.46
89.44
77.13
64.85
53.64
44.13
36.57
31.01
27.47
26.01
26.68
29.30
33.21
37.23
39.86
39.67
35.76
28.05
17.32
4.89
-7.84
-19.89
-31.00
-41.74
-53.38
-67.33
-84.54
-104.71
-125.79
-144.04
-154.82
-153.95
-139.13
-110.87
-72.42
-28.85
14.45
53.04
84.21
106.95
121.46
128.53
129.16
124.38
115.34
103.46
90.36
77.67
66.78
58.48
52.89
49.59
47.91
47.34
47.71
49.04
51.30
53.97
55.93
55.71
51.91
43.83
31.78
17.06
1.43
-13.41
-26.45
-37.59
-47.58
-57.73
-69.55
-84.26
-102.30
-122.76
-143.11
-159.30
-166.72
-161.52
-141.95
-109.20
-67.15
-21.25
22.97
61.25
91.19
112.13
124.63
129.82
128.99
123.41
114.37
103.15
91.08
79.46
69.43
61.81
56.99
54.86
54.86
56.14
57.90
59.54
60.75
61.40
61.31
60.12
57.19
51.79
43.36
31.86
17.91
2.65
-12.59
-26.73
-39.27
-50.29
-60.38
-70.39
-81.26
-93.92
-109.01
-126.34
-144.47
-160.41
-170.06
-169.28
-155.31
-127.90
-89.65
-45.35
-0.54
39.88
72.70
96.61
111.85
119.51
121.01
117.75
111.01
101.98
91.85
81.73
72.62
65.25
60.07
57.23
56.69
58.26
61.59
66.03
70.64
74.24
75.67
74.17
69.60
62.44
53.59
43.90
33.91
23.71
13.03
1.52
-10.97
-24.23
-37.69
-50.56
-62.17
-72.19
-80.91
-89.25
-98.59
-110.30
-125.04
-141.97
-158.45
-170.30
-172.96
-162.94
-139.24
-103.82
-61.10
-16.60
24.63
59.15
85.41
103.34
113.66
117.33
115.40
109.09
99.88
89.46
79.48
71.18
65.24
61.72
60.28
60.45
61.86
64.31
67.73
71.87
76.16
79.61
81.02
79.31
73.96
65.24
54.19
42.28
30.85
20.68
11.70
3.16
-5.92
-16.24
-27.83
-40.01
-51.72
-61.94
-70.16
-76.57
-82.00
-87.73
-95.18
-105.49
-118.98
-134.69
-150.02
-161.02
-163.30
-153.45
-130.33
-95.70
-53.86
-10.33
29.75
62.85
87.42
103.58
112.32
114.78
111.99
104.98
94.97
83.50
72.29
62.88
56.33
52.96
52.49
54.21
57.34
61.21
65.36
69.46
73.18
75.97
77.14
75.94
71.80
64.64
54.95
43.74
32.27
21.62
12.39
4.52
-2.61
-9.87
-18.00
-27.30
-37.49
-47.86
-57.50
-65.72
-72.27
-77.48
-82.15
-87.42
-94.52
-104.44
-117.40
-132.42
-146.99
-157.29
-159.12
-149.24
-126.65
-93.18
-53.03
-11.51
26.50
57.72
80.74
95.62
103.16
104.31
100.00
91.28
79.56
66.60
54.29
44.24
37.45
34.13
33.90
36.05
39.87
44.77
50.30
55.92
60.92
64.40
65.48
63.51
58.41
50.65
41.21
31.26
21.79
13.30
5.67
-1.75
-9.77
-18.91
-29.13
-39.74
-49.70
-58.09
-64.56
-69.50
-74.02
-79.57
-87.51
-98.44
-111.75
-125.40
-136.07
-139.98
-133.97
-116.67
-89.10
-54.44
-17.22
18.05
47.93
70.62
85.76
94.00
96.31
93.64
86.85
76.78
64.45
51.13
38.35
27.61
20.12
16.54
16.78
20.13
25.48
31.65
37.56
42.45
45.80
47.29
46.75
44.10
39.35
32.53
23.84
13.60
2.38
-9.12
-20.13
-30.07
-38.73
-46.33
-53.48
-61.01
-69.70
-80.09
-92.10
-104.78
-116.16
-123.45
-123.70
-114.71
-95.93
-68.81
-36.52
-3.05
27.91
53.75
73.16
85.80
91.88
91.73
85.78
74.80
60.14
43.70
27.63
13.86
3.67
-2.55
-5.17
-4.93
-2.65
1.06
5.77
11.06
16.32
20.67
23.05
22.53
18.59
11.38
1.78
-8.90
-19.28
-28.41
-36.03
-42.66
-49.37
-57.46
-67.95
-81.27
-96.77
-112.56
-125.65
-132.51
-130.09
-116.84
-93.37
-62.37
-27.79
6.27
36.50
60.87
78.46
89.08
92.85
90.21
81.92
69.32
54.18
38.42
23.77
11.41
1.93
-4.57
-8.21
-9.16
-7.54
-3.64
1.93
8.08
13.37
16.31
15.81
11.49
3.81
-6.12
-16.93
-27.42
-36.89
-45.32
-53.39
-62.29
-73.42
-87.76
-105.13
-123.62
-139.68
-148.81
-147.00
-132.20
-105.13
-69.15
-29.12
10.10
44.75
72.70
93.12
105.94
111.36
109.76
101.93
89.25
73.61
57.16
41.77
28.76
18.72
11.68
7.38
5.55
6.03
8.68
13.09
18.40
23.21
25.87
24.94
19.73
10.53
-1.42
-14.42
-26.88
-37.87
-47.44
-56.55
-66.75
-79.65
-96.27
-116.29
-137.57
-156.22
-167.38
-166.59
-151.32
-122.07
-82.27
-37.32
7.05
46.28
77.76
100.63
115.16
122.01
121.95
115.82
104.90
90.94
76.00
62.07
50.60
42.22
36.79
33.70
32.30
32.23
33.48
36.18
40.16
44.64
48.13
48.78
45.07
36.39
23.40
7.79
-8.28
-23.01
-35.53
-46.11
-55.97
-66.86
-80.54
-98.14
-119.48
-142.53
-163.40
-176.98
-178.36
-164.45
-135.29
-94.16
-46.69
0.89
43.37
77.59
102.51
118.62
127.04
128.97
125.48
117.58
106.44
93.52
80.42
68.73
59.70
54.01
51.63
51.94
54.01
56.87
59.82
62.42
64.41
65.49
65.21
62.94
58.04
50.08
39.03
25.35
9.95
-6.02
-21.43
-35.42
-47.63
-58.26
-68.07
-78.26
-90.30
-105.42
-124.01
-144.95
-165.23
-180.29
-185.13
-175.93
-151.47
-113.77
-67.59
-18.95
26.56
65.03
94.62
115.15
127.36
132.36
131.25
125.29
115.93
104.81
93.63
83.84
76.48
71.97
70.18
70.59
72.57
75.58
79.31
83.58
88.07
92.10
94.57
94.20
90.02
81.79
70.24
56.85
43.40
31.20
20.71
11.41
2.18
-8.14
-20.21
-33.85
-48.16
-61.81
-73.63
-82.95
-89.86
-95.27
-100.65
-107.83
-118.47
-133.46
-152.17
-171.99
-188.46
-196.25
-190.76
-169.73
-134.20
-88.38
-38.32
9.79
51.21
83.34
105.65
118.95
124.62
124.15
118.91
110.33
99.89
89.17
79.63
72.44
68.25
67.14
68.73
72.34
77.16
82.48
87.62
92.02
95.09
96.28
95.18
91.58
85.58
77.52
67.89
57.22
46.00
34.70
23.77
13.56
4.28
-4.13
-12.04
-20.00
-28.61
-38.14
-48.41
-58.84
-68.58
-76.92
-83.57
-88.86
-93.68
-99.39
-107.50
-119.15
-134.55
-152.32
-169.29
-180.94
-182.49
-170.47
-144.00
-105.31
-59.17
-11.46
32.43
68.72
95.68
113.20
122.16
123.83
119.59
110.88
99.31
86.64
74.58
64.57
57.61
54.12
54.03
56.84
61.85
68.28
75.26
81.90
87.31
90.68
91.42
89.30
84.48
77.46
68.86
59.34
49.38
39.28
29.25
19.47
10.08
1.22
-7.07
-14.89
-22.50
-30.25
-38.44
-47.09
-55.90
-64.29
-71.63
-77.50
-82.04
-85.96
-90.43
-96.80
-106.17
-118.91
-134.17
-149.61
-161.53
-165.66
-158.36
-137.93
-105.39
-64.41
-20.28
21.64
57.26
84.38
102.58
112.50
115.17
111.61
102.89
90.35
75.72
61.01
48.18
38.77
33.54
32.42
34.69
39.29
45.16
51.51
57.75
63.46
68.14
71.16
71.75
69.33
63.68
55.23
44.95
34.13
23.98
15.16
7.64
0.72
-6.59
-15.07
-24.90
-35.54
-45.99
-55.19
-62.46
-67.79
-71.78
-75.48
-80.06
-86.64
-95.94
-107.89
-121.24
-133.42
-140.90
-140.08
-128.55
-105.97
-74.40
-37.67
-0.25
33.90
62.05
82.87
96.11
102.13
101.63
95.51
84.89
71.11
55.78
40.59
27.17
16.89
10.62
8.66
10.62
15.60
22.40
29.77
36.59
42.02
45.48
46.67
45.54
42.19
36.89
29.94
21.64
12.29
2.16
-8.46
-19.23
-29.76
-39.74
-48.96
-57.43
-65.47
-73.72
-82.98
-93.94
-106.62
-119.87
-131.21
-137.26
-134.68
-121.38
-97.41
-65.16
-28.63
7.68
40.01
65.97
84.61
95.97
100.52
98.92
91.89
80.41
65.78
49.64
33.76
19.82
9.11
2.27
-0.66
-0.27
2.59
6.98
12.13
17.46
22.51
26.68
29.25
29.42
26.46
20.14
10.81
-0.56
-12.70
-24.35
-34.72
-43.63
-51.51
-59.23
-67.88
-78.47
-91.70
-107.48
-124.46
-139.95
-150.18
-151.28
-140.58
-117.69
-84.76
-45.96
-6.13
30.51
61.20
84.70
100.83
109.90
112.30
108.53
99.35
85.98
70.07
53.54
38.29
25.89
17.27
12.67
11.69
13.41
16.84
21.08
25.51
29.72
33.36
35.94
36.76
35.02
30.05
21.63
10.16
-3.36
-17.61
-31.31
-43.67
-54.55
-64.45
-74.35
-85.39
-98.69
-114.93
-133.87
-153.80
-171.40
-182.20
-181.77
-167.23
-138.48
-98.47
-52.38
-6.04
35.64
69.64
94.89
111.66
120.83
123.31
119.96
111.69
99.66
85.38
70.55
56.86
45.72
37.94
33.73
32.74
34.25
37.45
41.63
46.20
50.61
54.22
56.32
56.08
52.83
46.17
36.15
23.35
8.78
-6.33
-20.85
-34.05
-45.74
-56.27
-66.38
-77.13
-89.67
-105.04
-123.67
-144.77
-165.79
-182.50
-189.94
-183.89
-162.46
-126.98
-81.73
-32.66
14.36
54.90
86.55
108.74
122.06
127.64
126.72
120.59
110.57
98.12
84.70
71.78
60.64
52.25
47.19
45.51
46.86
50.50
55.50
60.86
65.62
69.01
70.42
69.51
66.14
60.37
52.35
42.29
30.43
17.16
3.01
-11.40
-25.40
-38.50
-50.51
-61.59
-72.32
-83.58
-96.49
-111.98
-130.34
-150.44
-169.38
-182.76
-185.73
-174.65
-148.50
-109.52
-62.66
-14.03
30.81
68.09
96.15
114.96
125.37
128.48
125.40
117.38
105.89
92.63
79.36
67.55
58.25
51.92
48.64
48.22
50.40
54.82
60.94
67.88
74.40
79.09
80.71
78.60
72.94
64.62
54.88
44.79
34.83
24.82
14.14
2.22
-11.05
-25.22
-39.34
-52.43
-63.84
-73.63
-82.54
-91.96
-103.47
-118.22
-136.24
-155.76
-173.09
-183.32
-181.69
-165.35
-134.47
-92.46
-44.88
2.17
43.79
77.08
101.10
116.24
123.43
123.70
118.16
108.18
95.47
81.96
69.42
59.20
52.01
47.97
46.83
48.22
51.79
57.20
63.98
71.36
78.14
82.90
84.30
81.51
74.59
64.48
52.73
41.00
30.36
21.01
12.27
3.05
-7.57
-19.80
-33.08
-46.32
-58.38
-68.56
-76.83
-83.87
-90.99
-99.74
-111.47
-126.58
-143.89
-160.27
-171.16
-171.82
-158.98
-132.20
-94.16
-49.86
-5.06
35.35
68.34
92.71
108.60
116.73
117.88
112.93
103.03
89.75
74.99
60.73
48.59
39.63
34.27
32.46
33.82
37.86
43.97
51.30
58.79
65.12
69.05
69.73
66.90
61.03
53.05
44.02
34.72
25.49
16.14
6.28
-4.44
-16.05
-28.12
-39.93
-50.73
-60.04
-67.93
-75.10
-82.78
-92.31
-104.55
-119.26
-134.57
-147.11
-152.71
-147.69
-130.16
-100.89
-63.18
-21.91
17.89
52.25
78.96
97.39
108.00
111.65
109.32
101.97
90.71
76.86
61.97
47.64
35.33
26.19
20.92
19.73
22.30
27.81
35.13
42.91
49.83
54.80
57.12
56.56
53.30
47.77
40.46
31.78
21.96
11.14
-0.53
-12.77
-25.15
-37.15
-48.27
-58.23
-67.10
-75.35
-83.87
-93.92
-106.71
-122.76
-141.14
-158.99
-171.82
-174.67
-163.85
-138.42
-100.84
-56.18
-10.56
30.73
64.32
88.96
104.90
113.06
114.43
110.01
100.94
88.64
74.74
60.87
48.33
38.06
30.59
26.20
24.99
26.92
31.69
38.62
46.61
54.21
59.91
62.49
61.40
56.89
49.91
41.68
33.22
24.92
16.56
7.45
-3.02
-15.02
-28.12
-41.36
-53.74
-64.57
-73.82
-82.15
-90.76
-101.15
-114.55
-131.33
-150.31
-168.44
-181.13
-183.43
-171.64
-144.84
-105.48
-58.78
-11.13
31.79
66.33
91.20
106.88
114.68
115.95
111.81
103.27
91.47
77.84
63.92
51.17
40.75
33.33
29.23
28.44
30.75
35.71
42.57
50.22
57.28
62.34
64.34
62.83
58.10
50.98
42.50
33.43
24.07
14.25
3.68
-7.79
-19.91
-32.11
-43.73
-54.40
-64.17
-73.61
-83.65
-95.41
-109.85
-127.19
-146.24
-164.08
-176.23
-177.84
-165.31
-137.83
-98.01
-51.22
-3.91
38.32
71.99
95.98
110.84
117.80
118.11
112.80
102.93
89.78
74.92
59.98
46.48
35.62
28.18
24.57
24.85
28.63
35.10
43.08
51.14
57.87
62.20
63.53
61.81
57.39
50.81
42.56
33.02
22.40
10.90
-1.21
-13.56
-25.72
-37.26
-47.96
-57.84
-67.23
-76.86
-87.74
-101.02
-117.44
-136.48
-155.81
-171.24
-177.64
-170.63
-148.34
-112.39
-67.50
-20.07
23.92
60.34
87.47
105.49
115.40
118.24
114.79
105.88
92.66
76.86
60.50
45.55
33.59
25.53
21.61
21.55
24.64
29.92
36.31
42.76
48.37
52.49
54.71
54.78
52.48
47.59
39.91
29.58
17.17
3.69
-9.63
-21.83
-32.43
-41.67
-50.25
-59.15
-69.39
-81.90
-97.31
-115.45
-134.88
-152.46
-163.71
-164.02
-150.26
-122.18
-82.82
-37.62
7.32
46.97
78.49
101.09
115.35
122.25
122.65
117.22
106.74
92.40
75.85
59.02
43.80
31.73
23.71
19.94
19.97
22.89
27.59
32.96
38.10
42.36
45.27
46.47
45.54
42.08
35.75
26.48
14.67
1.15
-12.87
-26.22
-38.09
-48.31
-57.30
-65.93
-75.33
-86.64
-100.85
-118.32
-138.11
-157.50
-172.04
-176.59
-166.95
-141.66
-102.83
-55.68
-6.86
37.59
73.75
100.18
117.26
126.12
127.81
123.15
112.99
98.56
81.65
64.36
48.77
36.51
28.48
24.77
24.83
27.61
31.94
36.76
41.29
45.04
47.76
49.18
48.96
46.59
41.58
33.67
23.04
10.39
-3.20
-16.58
-28.89
-39.79
-49.55
-58.91
-68.88
-80.55
-94.96
-112.65
-133.09
-154.12
-171.76
-180.89
-176.74
-156.68
-121.51
-75.49
-25.07
23.09
63.97
95.03
115.99
127.89
132.04
129.56
121.43
108.78
93.15
76.44
60.62
47.38
37.83
32.38
30.83
32.49
36.39
41.50
46.88
51.76
55.54
57.78
58.05
55.94
51.07
43.26
32.62
19.72
5.49
-8.90
-22.45
-34.54
-45.16
-54.81
-64.31
-74.66
-86.85
-101.71
-119.51
-139.37
-158.71
-173.32
-178.16
-169.05
-144.34
-105.91
-58.76
-9.51
35.66
72.64
99.81
117.47
126.75
128.71
124.12
113.72
98.74
81.09
63.13
47.25
35.25
27.98
25.30
26.30
29.69
34.28
39.19
43.92
48.26
51.96
54.54
55.18
52.94
47.07
37.40
24.50
9.66
-5.57
-19.76
-32.10
-42.55
-51.76
-60.85
-71.10
-83.72
-99.41
-117.86
-137.30
-154.35
-164.52
-163.43
-148.34
-119.32
-79.52
-34.21
10.76
50.62
82.58
105.70
120.29
127.00
126.44
119.25
106.44
89.66
71.19
53.47
38.66
28.13
22.21
20.32
21.36
24.15
27.83
31.95
36.35
40.78
44.62
46.82
46.10
41.51
32.76
20.50
6.14
-8.56
-22.13
-33.72
-43.42
-52.03
-60.85
-71.35
-84.79
-101.77
-121.74
-142.47
-160.09
-169.68
-166.72
-148.68
-116.20
-73.10
-25.34
20.87
60.68
91.53
112.93
125.61
130.67
128.98
121.33
108.66
92.40
74.49
57.15
42.43
31.80
25.87
24.32
26.17
30.10
34.85
39.51
43.55
46.67
48.58
48.85
46.85
41.98
33.86
22.66
9.12
-5.53
-19.95
-33.12
-44.62
-54.71
-64.17
-74.01
-85.32
-99.05
-115.84
-135.44
-156.19
-174.62
-185.91
-185.10
-168.91
-137.19
-93.36
-43.40
5.97
49.27
83.41
107.62
122.66
129.78
130.06
124.41
113.79
99.59
83.65
68.01
54.52
44.53
38.60
36.56
37.68
40.93
45.24
49.68
53.56
56.38
57.77
57.43
55.06
50.39
43.22
33.54
21.63
8.10
-6.17
-20.23
-33.30
-44.98
-55.32
-64.87
-74.50
-85.33
-98.51
-114.82
-134.08
-154.52
-172.53
-183.18
-181.62
-164.74
-132.60
-88.71
-39.00
9.94
52.75
86.35
109.93
124.18
130.30
129.43
122.57
110.87
95.88
79.58
64.00
50.90
41.41
35.92
34.25
35.82
39.85
45.43
51.56
57.20
61.40
63.44
62.96
59.95
54.68
47.47
38.59
28.17
16.34
3.34
-10.36
-24.16
-37.34
-49.39
-60.14
-69.86
-79.31
-89.57
-101.88
-117.04
-134.79
-153.18
-168.51
-175.96
-171.09
-151.47
-117.79
-73.91
-25.72
20.67
60.51
91.25
112.33
124.44
128.65
125.95
117.27
103.75
86.95
68.88
51.79
37.71
28.08
23.38
23.18
26.30
31.31
36.91
42.25
46.93
50.78
53.52
54.63
53.39
49.16
41.63
31.07
18.26
4.36
-9.47
-22.34
-33.85
-44.12
-53.65
-63.20
-73.65
-85.84
-100.33
-116.92
-134.06
-148.78
-156.99
-154.60
-138.99
-110.18
-71.08
-26.75
17.13
55.79
86.38
107.96
120.94
126.20
124.58
116.83
103.83
86.97
68.19
49.78
33.95
22.29
15.49
13.25
14.53
17.97
22.36
26.86
31.05
34.67
37.45
38.83
38.01
34.19
26.89
16.28
3.25
-10.80
-24.39
-36.48
-46.74
-55.64
-64.13
-73.41
-84.57
-98.49
-115.54
-135.12
-155.13
-171.78
-180.20
-175.76
-155.85
-121.10
-75.52
-25.38
22.78
63.90
95.36
116.76
129.04
133.54
131.42
123.66
111.34
95.88
79.01
62.62
48.42
37.71
31.14
28.72
29.82
33.41
38.29
43.30
47.57
50.48
51.71
51.01
48.20
43.10
35.58
25.71
13.78
0.39
-13.66
-27.53
-40.54
-52.36
-63.06
-73.07
-83.12
-94.15
-107.18
-123.06
-141.77
-161.83
-179.87
-191.05
-190.33
-174.21
-142.23
-97.51
-45.91
5.78
51.72
88.28
114.17
129.87
136.64
135.94
129.21
118.00
104.01
89.04
74.70
62.28
52.57
45.96
42.58
42.31
44.77
49.29
54.87
60.30
64.37
66.15
65.16
61.45
55.46
47.78
38.89
29.04
18.21
6.29
-6.66
-20.31
-34.08
-47.25
-59.31
-70.12
-80.01
-89.86
-100.93
-114.52
-131.36
-150.78
-170.11
-184.77
-189.35
-179.39
-153.14
-112.50
-62.63
-10.31
38.05
77.99
107.52
126.62
136.30
137.88
132.69
122.20
108.14
92.47
77.15
63.71
53.12
45.75
41.52
40.27
41.72
45.59
51.31
57.98
64.31
68.85
70.43
68.43
63.05
55.10
45.72
35.82
25.83
15.62
4.74
-7.19
-20.15
-33.65
-46.83
-58.91
-69.44
-78.61
-87.17
-96.34
-107.49
-121.68
-138.92
-157.62
-174.29
-184.10
-182.19
-165.38
-133.58
-90.19
-41.06
7.23
49.31
82.14
105.01
118.74
124.59
123.68
116.78
104.80
89.08
71.59
54.64
40.41
30.43
25.22
24.34
26.69
30.99
36.11
41.32
46.20
50.40
53.50
54.82
53.60
49.20
41.33
30.27
16.91
2.56
-11.44
-24.00
-34.74
-43.92
-52.41
-61.34
-71.83
-84.71
-100.24
-117.71
-135.09
-149.10
-155.69
-151.19
-133.64
-103.70
-64.72
-21.75
19.85
55.84
83.77
102.83
113.29
115.77
111.04
100.09
84.39
66.00
47.30
30.54
17.36
8.49
3.83
2.81
4.75
9.05
15.18
22.42
29.67
35.46
38.28
37.02
31.41
22.12
10.50
-1.88
-13.77
-24.59
-34.55
-44.47
-55.59
-69.11
-85.66
-104.76
-124.33
-140.88
-150.14
-148.32
-133.49
-106.31
-70.00
-29.43
10.32
45.14
72.52
91.50
102.15
105.05
100.96
90.84
75.99
58.05
39.02
20.93
5.65
-5.53
-12.00
-13.91
-11.99
-7.38
-1.42
4.47
8.98
10.98
9.77
5.20
-2.25
-11.66
-21.91
-32.11
-41.91
-51.57
-62.02
-74.47
-89.94
-108.47
-128.54
-146.86
-158.96
-160.36
-148.11
-121.92
-84.48
-40.66
3.86
44.15
76.87
100.59
115.27
121.67
120.83
113.82
101.84
86.29
68.80
51.19
35.22
22.40
13.71
9.47
9.34
12.37
17.22
22.31
26.08
27.26
25.07
19.34
10.53
-0.42
-12.45
-24.70
-36.88
-49.39
-63.22
-79.51
-98.80
-120.32
-141.47
-158.07
-165.29
-159.15
-137.92
-102.91
-58.22
-9.59
37.18
77.56
108.90
130.35
142.31
145.85
142.32
133.21
120.23
105.23
90.03
76.20
64.83
56.36
50.73
47.58
46.48
47.09
49.06
51.86
54.56
55.85
54.26
48.70
38.86
25.46
9.99
-5.77
-20.46
-33.57
-45.61
-57.88
-71.99
-89.16
-109.42
-131.15
-150.89
-163.96
-165.67
-152.77
-124.75
-84.19
-36.15
13.27
58.53
95.82
123.45
141.47
150.95
153.30
149.93
142.21
131.56
119.54
107.68
97.25
89.02
83.18
79.50
77.59
77.11
77.88
79.73
82.23
84.52
85.39
83.64
78.45
69.78
58.38
45.53
32.52
20.22
8.80
-2.24
-13.62
-25.85
-38.89
-52.07
-64.41
-74.99
-83.48
-90.29
-96.60
-104.05
-114.19
-127.89
-144.68
-162.39
-177.23
-184.67
-180.56
-162.65
-131.41
-90.09
-43.81
1.83
42.21
74.52
97.90
112.90
120.81
123.03
120.84
115.39
107.87
99.53
91.61
85.09
80.55
78.08
77.41
78.08
79.73
82.09
84.91
87.77
89.97
90.63
88.95
84.54
77.61
68.90
59.40
49.93
40.89
32.21
23.56
14.62
5.40
-3.79
-12.39
-19.95
-26.35
-31.89
-37.25
-43.16
-50.12
-58.18
-66.92
-75.63
-83.59
-90.42
-96.26
-101.88
-108.49
-117.47
-129.77
-145.29
-162.38
-177.73
-186.96
-185.85
-171.69
-144.33
-106.44
-62.68
-18.39
21.80
54.88
79.66
96.33
105.86
109.47
108.37
103.76
96.90
89.13
81.71
75.63
71.47
69.37
69.13
70.40
72.81
76.07
79.81
83.56
86.59
88.04
87.19
83.62
77.43
69.24
59.98
50.63
41.88
33.96
26.66
19.50
12.12
4.40
-3.35
-10.65
-17.04
-22.41
-27.06
-31.66
-36.90
-43.24
-50.65
-58.67
-66.56
-73.66
-79.67
-84.85
-89.99
-96.23
-104.68
-115.96
-129.67
-144.11
-156.33
-162.63
-159.60
-145.21
-119.57
-85.09
-45.89
-6.63
28.60
57.14
77.92
91.14
97.74
98.87
95.66
89.27
80.95
72.05
63.93
57.66
53.88
52.61
53.46
55.83
59.13
62.96
66.99
70.86
74.01
75.71
75.25
72.22
66.68
59.21
50.69
42.09
34.13
27.10
20.90
15.09
9.25
3.13
-3.18
-9.30
-14.79
-19.43
-23.34
-27.03
-31.11
-36.02
-41.77
-47.99
-54.06
-59.48
-64.06
-68.01
-71.94
-76.69
-83.11
-91.81
-102.71
-114.76
-125.81
-132.92
-133.08
-124.17
-105.71
-79.14
-47.47
-14.43
16.44
42.53
62.42
75.72
82.73
84.09
80.62
73.28
63.27
52.05
41.21
32.22
26.17
23.52
24.08
27.18
31.91
37.38
42.86
47.79
51.70
54.21
54.96
53.72
50.42
45.25
38.60
30.98
22.98
15.06
7.59
0.79
-5.30
-10.80
-16.00
-21.24
-26.81
-32.80
-38.99
-44.91
-50.06
-54.11
-57.14
-59.60
-62.24
-65.91
-71.35
-78.93
-88.43
-98.76
-107.97
-113.55
-113.01
-104.64
-88.16
-64.91
-37.49
-9.07
17.38
39.67
56.53
67.54
72.83
72.94
68.65
61.00
51.17
40.46
30.12
21.25
14.63
10.69
9.50
10.81
14.16
18.95
24.48
29.96
34.61
37.69
38.67
37.29
33.70
28.32
21.80
14.72
7.51
0.27
-7.13
-14.92
-23.24
