1523188745.00
64.000000
-0.00
-0.00
-0.00
-0.00
-0.00
-0.00
-0.00
-0.00
-0.00
-0.00
0.00
0.01
0.01
-0.00
-0.03
-0.05
-0.05
0.00
0.13
0.36
0.66
1.01
1.37
1.72
2.06
2.40
2.79
3.24
3.80
4.42
5.06
5.66
6.20
6.68
7.15
7.68
8.31
9.14
10.09
11.04
11.88
12.56
13.14
13.76
14.65
15.96
17.91
20.32
22.90
25.38
27.58
29.57
31.68
34.32
37.81
42.54
48.15
54.10
59.83
64.97
69.58
74.14
79.34
85.71
93.76
103.00
112.62
121.73
129.77
136.75
143.30
150.75
157.77
166.64
177.95
191.79
206.97
220.57
228.25
225.36
208.53
176.87
132.76
80.05
23.07
-34.94
-92.44
-149.16
-205.23
-260.37
-313.74
-363.87
-409.83
-450.91
-486.50
-515.74
-537.23
-549.22
-549.96
-538.37
-514.21
-478.67
-433.88
-382.45
-327.02
-269.84
-212.63
-156.66
-102.95
-52.37
-5.90
35.58
71.43
101.35
125.50
144.38
158.69
169.15
176.37
180.75
182.57
182.07
179.51
175.23
169.65
163.18
156.15
148.81
141.30
133.69
126.02
118.33
110.69
103.16
95.80
88.68
81.83
75.25
68.95
62.95
57.25
51.86
46.78
42.03
37.59
33.45
29.61
26.07
22.81
19.83
17.11
14.67
12.48
10.54
8.83
7.35
6.07
4.97
4.05
3.27
2.62
2.09
1.65
1.30
1.01
0.79
0.61
0.48
0.37
0.29
0.24
0.21
0.19
0.18
0.18
0.20
0.22
0.25
0.29
0.32
0.36
0.40
0.44
0.48
0.52
0.56
0.61
0.67
0.73
0.79
0.82
0.83
0.83
0.82
0.84
0.89
1.00
1.14
1.30
1.46
1.60
1.72
1.86
2.04
2.29
2.60
2.97
3.36
3.71
4.00
4.26
4.53
4.88
5.37
6.01
6.72
7.41
7.96
8.30
8.47
8.61
8.91
9.52
10.48
11.65
12.79
13.62
13.94
13.80
13.33
12.80
12.35
11.90
11.10
9.43
6.46
1.98
-3.82
-10.41
-17.05
-23.09
-28.17
-32.28
-35.65
-38.59
-41.34
-44.16
-47.15
-50.23
-52.81
-53.76
-51.59
-45.17
-34.41
-20.61
-6.13
6.44
15.32
20.11
21.59
21.16
19.89
18.26
16.18
13.61
10.78
8.32
6.80
6.37
6.50
6.30
4.92
2.02
-2.04
-6.37
-9.89
-11.74
-11.40
-8.71
-3.74
3.21
11.47
20.00
27.49
32.68
34.83
33.87
30.41
25.26
19.05
12.03
4.24
-4.09
-12.23
-19.00
-23.32
-24.77
-24.04
-22.63
-22.23
-23.96
-28.02
-33.74
-40.11
-46.46
-52.69
-59.15
-65.90
-72.30
-76.94
-78.47
-76.41
-71.70
-66.44
-62.95
-62.52
-64.66
-67.24
-67.34
-62.64
-52.35
-37.54
-20.54
-3.92
10.61
22.61
32.66
41.47
49.18
54.97
57.57
55.92
49.84
40.21
28.52
16.43
5.42
-3.12
-7.77
-7.09
-0.20
12.60
29.45
47.28
62.75
73.57
79.20
80.89
80.80
80.76
81.49
82.35
82.12
79.99
76.46
73.78
75.50
85.70
107.81
143.46
191.71
248.82
308.72
364.12
408.00
435.01
442.35
429.97
400.12
356.47
303.11
243.94
182.06
119.57
57.37
-4.48
-66.06
-126.65
-184.08
-234.87
-275.16
-302.16
-315.25
-316.28
-308.83
-296.89
-283.77
-271.51
-261.11
-253.02
-247.52
-244.60
-243.65
-243.12
-240.73
-234.07
-221.36
-202.14
-177.42
-149.36
-120.49
-92.99
-68.06
-46.08
-26.87
-10.30
3.40
13.68
20.05
22.51
21.80
19.27
16.41
14.40
13.73
14.20
15.14
15.82
15.66
14.44
12.22
9.27
5.87
2.22
-1.65
-5.90
-10.88
-17.06
-24.90
-34.58
-45.81
-57.58
-68.19
-75.55
-77.70
-73.43
-62.60
-46.29
-26.43
-5.24
15.25
33.59
48.92
60.79
69.06
73.74
75.04
73.48
69.76
64.71
59.11
53.52
48.29
43.61
39.54
36.05
32.97
29.96
26.57
22.42
17.31
11.31
4.73
-2.06
-8.85
-15.68
-22.83
-30.74
-39.74
-49.82
-60.44
-70.42
-78.09
-81.61
-79.40
-70.69
-55.80
-36.13
-13.83
8.75
29.52
47.06
60.68
70.30
76.24
79.05
79.38
77.92
75.27
71.86
67.95
63.63
58.95
54.04
49.11
44.36
39.90
35.62
31.25
26.53
21.34
15.79
10.16
4.74
-0.44
-5.61
-11.27
-17.95
-26.04
-35.65
-46.52
-57.93
-68.73
-77.40
-82.22
-81.62
-74.64
-61.28
-42.60
-20.64
2.19
23.59
41.87
56.09
66.00
71.77
73.84
72.77
69.30
64.37
58.98
53.98
49.91
46.81
44.40
42.25
40.02
37.58
34.91
32.04
28.87
25.22
20.91
15.86
10.16
3.97
-2.52
-9.18
-16.03
-23.15
-30.70
-38.89
-47.92
-57.81
-68.22
-78.21
-86.25
-90.49
-89.25
-81.58
-67.59
-48.53
-26.35
-3.31
18.56
37.71
53.11
64.22
70.86
73.28
72.10
68.30
63.08
57.61
52.74
48.86
45.87
43.41
41.05
38.52
35.81
33.05
30.40
27.81
25.08
21.85
17.83
12.89
7.21
1.13
-4.98
-10.86
-16.53
-22.24
-28.43
-35.53
-43.78
-53.03
-62.62
-71.39
-77.75
-80.06
-77.04
-68.11
-53.68
-35.08
-14.23
6.70
25.77
41.48
52.99
60.04
62.96
62.48
59.59
55.30
50.45
45.63
41.17
37.20
33.72
30.64
27.85
25.21
22.64
20.11
17.67
15.29
12.83
10.01
6.53
2.18
-2.96
-8.56
-14.14
-19.30
-23.97
-28.41
-33.15
-38.78
-45.65
-53.66
-62.07
-69.63
-74.75
-75.87
-71.95
-62.69
-48.68
-31.23
-12.03
7.13
24.65
39.31
50.24
57.04
59.78
59.02
55.71
50.98
45.82
40.94
36.67
33.07
30.08
27.63
25.65
24.04
22.63
21.18
19.44
17.19
14.33
10.83
6.69
1.96
-3.30
-8.94
-14.82
-20.79
-26.80
-32.98
-39.60
-46.93
-54.99
-63.33
-70.93
-76.35
-78.04
-74.87
-66.43
-53.30
-36.75
-18.50
-0.23
16.69
31.26
42.79
50.84
55.20
56.01
53.83
49.53
44.19
38.69
33.63
29.20
25.38
22.12
19.39
17.22
15.59
14.29
12.95
11.14
8.51
4.92
0.49
-4.49
-9.67
-14.79
-19.72
-24.53
-29.46
-34.85
-41.08
-48.39
-56.66
-65.24
-72.97
-78.31
-79.76
-76.26
-67.54
-54.19
-37.49
-19.08
-0.66
16.35
30.79
41.93
49.41
53.26
53.90
52.02
48.36
43.64
38.41
33.09
28.06
23.68
20.24
17.91
16.59
15.92
15.38
14.42
12.64
9.84
6.08
1.54
-3.47
-8.67
-13.81
-18.82
-23.85
-29.22
-35.32
-42.44
-50.59
-59.35
-67.85
-74.83
-78.81
-78.40
-72.68
-61.50
-45.61
-26.58
-6.38
12.99
29.91
43.33
52.75
58.13
59.73
58.14
54.16
48.79
43.01
37.63
33.10
29.53
26.76
24.49
22.50
20.62
18.74
16.77
14.56
11.90
8.60
4.54
-0.23
-5.51
-10.96
-16.28
-21.32
-26.22
-31.40
-37.45
-44.81
-53.51
-62.90
-71.64
-77.99
-80.24
-77.27
-68.81
-55.53
-38.78
-20.22
-1.45
16.14
31.45
43.62
52.10
56.71
57.70
55.74
51.76
46.72
41.43
36.40
31.93
28.14
25.05
22.57
20.55
18.74
16.91
14.88
12.58
10.04
7.32
4.44
1.35
-2.05
-5.92
-10.39
-15.56
-21.54
-28.49
-36.54
-45.68
-55.56
-65.25
-73.23
-77.69
-76.95
-70.05
-57.11
-39.38
-18.95
1.85
20.96
36.95
49.13
57.42
62.13
63.72
62.69
59.64
55.18
49.98
44.68
39.76
35.49
31.88
28.83
26.22
24.00
22.13
20.50
18.82
16.63
13.44
9.00
3.42
-2.87
-9.22
-15.11
-20.29
-24.91
-29.47
-34.62
-41.00
-48.94
-58.19
-67.85
-76.35
-81.86
-82.66
-77.70
-66.84
-50.90
-31.46
-10.52
9.94
28.14
42.82
53.23
59.22
61.19
59.93
56.44
51.74
46.76
42.14
38.25
35.13
32.58
30.32
28.13
25.96
23.94
22.20
20.70
19.17
17.12
14.10
9.94
4.80
-0.86
-6.52
-11.90
-17.08
-22.36
-28.15
-34.72
-42.05
-49.82
-57.44
-64.10
-68.82
-70.54
-68.25
-61.31
-49.61
-33.86
-15.50
3.53
21.22
35.94
46.73
53.37
56.22
55.94
53.32
49.12
44.10
38.92
34.20
30.30
27.28
24.89
22.76
20.57
18.27
16.05
14.15
12.63
11.23
9.44
6.76
2.95
-1.87
-7.27
-12.77
-18.09
-23.24
-28.47
-34.13
-40.48
-47.53
-55.01
-62.23
-68.18
-71.53
-70.94
-65.41
-54.66
-39.33
-20.96
-1.62
16.62
32.04
43.58
50.84
54.02
53.68
50.64
45.83
40.21
34.60
29.59
25.50
22.36
20.00
18.14
16.53
14.88
12.94
10.52
7.48
3.81
-0.38
-4.93
-9.64
-14.42
-19.23
-24.13
-29.30
-34.97
-41.46
-49.01
-57.67
-67.09
-76.37
-84.12
-88.67
-88.50
-82.67
-71.16
-54.89
-35.47
-14.82
5.22
23.20
38.07
49.24
56.44
59.78
59.74
57.11
52.92
48.15
43.53
39.42
35.83
32.61
29.63
26.90
24.53
22.65
21.19
19.82
18.04
15.28
11.19
5.71
-0.85
-7.99
-15.17
-22.06
-28.61
-35.09
-41.96
-49.72
-58.63
-68.51
-78.53
-87.18
-92.58
-92.90
-87.01
-74.80
-57.33
-36.50
-14.55
6.48
25.06
40.24
51.65
59.23
63.25
64.18
62.70
59.55
55.46
51.00
46.56
42.31
38.27
34.37
30.57
26.89
23.45
20.42
17.84
15.53
12.98
9.51
4.47
-2.44
-10.99
-20.55
-30.23
-39.30
-47.50
-55.08
-62.75
-71.33
-81.46
-93.24
-105.95
-118.02
-127.21
-131.04
-127.47
-115.53
-95.72
-69.92
-40.87
-11.39
16.25
40.66
61.23
77.84
90.44
98.99
103.52
104.36
102.25
98.27
93.56
88.97
84.94
81.44
78.19
74.85
71.19
67.16
62.86
58.41
53.98
49.60
45.23
40.66
35.60
29.76
23.03
15.58
7.77
0.01
-7.48
-14.67
-21.72
-28.81
-36.04
-43.52
-51.39
-59.75
-68.53
-77.11
-84.21
-87.99
-86.59
-78.76
-64.45
-44.93
-22.43
0.46
21.52
39.29
53.07
62.81
68.74
71.26
70.89
68.28
64.25
59.69
55.38
51.84
49.20
47.24
45.60
43.89
41.89
39.55
36.93
34.17
31.28
28.15
24.59
20.39
15.50
10.04
4.31
-1.41
-6.98
-12.48
-18.07
-23.97
-30.26
-36.90
-43.86
-51.17
-58.89
-67.00
-75.06
-82.14
-86.81
-87.58
-83.27
-73.44
-58.57
-39.93
-19.29
1.44
20.53
36.58
48.71
56.57
60.32
60.57
58.27
54.51
50.30
46.45
43.43
41.30
39.81
38.55
37.11
35.27
33.09
30.82
28.73
26.95
25.37
23.61
21.25
17.95
13.64
8.49
2.82
-3.04
-8.86
-14.51
-19.95
-25.19
-30.26
-35.33
-40.65
-46.58
-53.38
-61.01
-68.89
-75.85
-80.33
-80.77
-76.12
-66.16
-51.63
-34.06
-15.35
2.70
18.72
31.90
41.95
48.85
52.73
53.78
52.34
49.03
44.73
40.43
36.97
34.73
33.55
32.91
32.16
30.88
29.00
26.70
24.18
21.53
18.68
15.46
11.75
7.52
2.82
-2.29
-7.79
-13.64
-19.73
-25.94
-32.12
-38.25
-44.49
-51.10
-58.25
-65.79
-73.09
-79.12
-82.57
-82.25
-77.30
-67.52
-53.37
-35.94
-16.83
2.17
19.39
33.55
43.94
50.45
53.37
53.28
50.86
46.89
42.18
37.54
33.58
30.58
28.42
26.66
24.85
22.73
20.37
18.05
16.08
14.53
13.25
11.84
9.84
6.86
2.69
-2.63
-8.88
-15.71
-22.73
-29.63
-36.32
-42.94
-49.85
-57.42
-65.79
-74.63
-82.94
-89.18
-91.61
-88.72
-79.80
-65.24
-46.50
-25.77
-5.35
12.88
27.88
39.35
47.49
52.63
55.04
54.90
52.49
48.38
43.42
38.59
34.68
32.01
30.45
29.52
28.69
27.59
26.05
24.08
21.65
18.75
15.28
11.25
6.76
1.95
-3.04
-8.24
-13.74
-19.71
-26.27
-33.46
-41.27
-49.70
-58.64
-67.73
-76.07
-82.31
-84.81
-82.16
-73.74
-59.93
-42.09
-22.17
-2.12
16.44
32.37
44.94
53.79
58.80
60.28
58.87
55.56
51.38
47.20
43.51
40.45
37.85
35.49
33.10
30.56
27.77
24.65
21.17
17.30
13.06
8.50
3.68
-1.26
-6.20
-11.05
-15.80
-20.64
-25.93
-32.14
-39.67
-48.61
-58.51
-68.33
-76.52
-81.33
-81.21
-75.31
-63.70
-47.40
-28.19
-8.16
10.75
27.04
39.84
48.87
54.35
56.82
57.01
55.69
53.54
51.00
48.28
45.41
42.39
39.27
36.28
33.66
31.55
29.87
28.27
26.29
23.54
19.88
15.40
10.39
5.12
-0.22
-5.62
-11.18
-17.07
-23.53
-30.77
-38.89
-47.74
-56.71
-64.70
-70.29
-72.07
-69.10
-61.19
-48.99
-33.77
-17.08
-0.43
14.90
27.93
38.00
44.75
48.16
48.53
46.47
42.77
38.27
33.68
29.53
26.12
23.56
21.84
20.82
20.31
19.99
19.49
18.36
16.22
12.88
8.37
2.98
-2.88
-8.84
-14.76
-20.68
-26.90
-33.79
-41.68
-50.66
-60.40
-70.00
-77.98
-82.54
-82.03
-75.42
-62.71
-45.01
-24.31
-2.94
16.91
33.61
46.25
54.61
59.02
60.12
58.74
55.69
51.68
47.25
42.83
38.70
35.05
31.98
29.46
27.39
25.60
23.90
22.08
19.90
17.12
13.53
8.97
3.43
-2.91
-9.77
-16.84
-23.91
-31.06
-38.61
-47.06
-56.80
-67.82
-79.39
-90.03
-97.70
-100.36
-96.60
-86.15
-70.03
-50.18
-28.93
-8.30
10.30
26.16
39.04
48.87
55.63
59.39
60.46
59.44
57.18
54.56
52.21
50.39
49.08
48.10
47.33
46.79
46.56
46.61
46.64
46.06
44.16
40.35
34.48
26.88
18.29
9.60
1.49
-5.78
-12.42
-19.02
-26.32
-34.96
-45.15
-56.53
-68.01
-77.92
-84.29
-85.38
-80.19
-68.77
-52.22
-32.39
-11.40
8.82
26.83
41.72
53.07
60.79
65.02
66.13
64.66
61.38
57.13
52.75
48.87
45.81
43.52
41.67
39.85
37.73
35.20
32.36
29.46
26.73
24.25
21.91
19.32
16.03
11.62
5.91
-0.88
-8.26
-15.58
-22.38
-28.62
-34.70
-41.26
-48.93
-57.98
-68.05
-78.13
-86.70
-92.03
-92.54
-87.19
-75.82
-59.24
-39.09
-17.47
3.51
22.18
37.51
49.07
56.87
61.11
62.16
60.53
56.95
52.34
47.64
43.56
40.39
38.03
36.08
34.17
32.13
30.06
28.21
26.72
25.48
24.08
21.94
18.52
13.53
6.98
-0.77
-9.20
-17.69
-25.68
-32.79
-38.93
-44.29
-49.29
-54.39
-59.87
-65.58
-70.87
-74.63
-75.57
-72.56
-64.93
-52.76
-36.86
-18.62
0.29
18.27
34.09
46.95
56.50
62.66
65.56
65.49
62.90
58.52
53.22
47.93
43.40
40.00
37.67
35.98
34.44
32.67
30.61
28.44
26.45
24.76
23.24
21.54
19.21
15.97
11.77
6.71
1.02
-5.13
-11.56
-18.13
-24.66
-30.98
-37.06
-43.01
-49.13
-55.78
-63.17
-71.10
-78.85
-85.14
-88.42
-87.17
-80.46
-68.27
-51.55
-32.06
-11.87
7.13
23.57
36.67
46.14
52.00
54.54
54.24
51.84
48.22
44.27
40.61
37.52
34.94
32.66
30.47
28.32
26.27
24.41
22.76
21.18
19.40
17.03
13.69
9.11
3.22
-3.72
-11.18
-18.43
-24.79
-29.86
-33.72
-36.84
-39.96
-43.74
-48.52
-54.18
-60.06
-65.11
-68.04
-67.59
-62.84
-53.43
-39.77
-22.98
-4.68
13.37
29.61
42.94
52.79
59.00
61.73
61.36
58.47
53.83
48.34
42.87
38.07
34.16
31.00
28.18
25.28
22.15
18.91
15.91
13.47
11.66
10.21
8.57
6.17
2.59
-2.21
-7.94
-14.13
-20.31
-26.20
-31.80
-37.33
-43.18
-49.81
-57.53
-66.41
-75.99
-85.15
-92.24
-95.33
-92.90
-84.25
-69.90
-51.42
-30.96
-10.62
7.98
23.93
36.79
46.41
52.76
55.90
56.12
54.04
50.55
46.63
43.10
40.36
38.43
36.98
35.61
34.03
32.17
30.08
27.86
25.46
22.69
19.26
14.98
9.87
4.17
-1.75
-7.55
-13.13
-18.65
-24.50
-31.12
-38.83
-47.71
-57.47
-67.49
-76.75
-83.95
-87.65
-86.57
-79.92
-67.75
-50.99
-31.29
-10.63
9.09
26.41
40.39
50.64
57.14
60.16
60.20
57.94
54.18
49.74
45.30
41.35
38.10
35.55
33.52
31.79
30.16
28.51
26.81
25.02
23.06
20.75
17.83
14.08
9.35
3.72
-2.53
-8.99
-15.31
-21.31
-27.13
-33.19
-39.99
-47.82
-56.49
-65.21
-72.65
-77.22
-77.53
-72.70
-62.67
-48.15
-30.55
-11.59
6.94
23.56
37.23
47.38
53.94
57.13
57.46
55.57
52.22
48.14
43.95
40.02
36.52
33.40
30.59
28.06
25.86
24.03
22.48
20.97
19.09
16.46
12.83
8.19
2.73
-3.18
-9.24
-15.19
-20.94
-26.60
-32.42
-38.72
-45.78
-53.57
-61.61
-68.84
-73.85
-75.21
-71.95
-63.88
-51.68
-36.62
-20.23
-3.96
11.02
23.72
33.38
39.46
41.81
40.81
37.35
32.62
27.73
23.42
19.88
16.92
14.17
11.36
8.41
5.31
2.04
-1.56
-5.74
-10.73
-16.61
-23.34
-30.71
-38.48
-46.48
-54.64
-62.97
-71.63
-80.76
-90.49
-100.66
-110.67
-119.27
-124.66
-124.89
-118.39
-104.55
-84.01
-58.52
-30.48
-2.31
24.03
47.24
66.59
81.69
92.33
98.45
100.21
98.15
93.17
86.39
78.96
71.79
65.45
60.11
55.70
51.99
48.70
45.55
42.20
38.28
33.47
27.58
20.74
13.33
5.82
-1.41
-8.33
-15.26
-22.76
-31.44
-41.66
-53.32
-65.66
-77.30
-86.34
-90.77
-89.00
-80.33
-65.27
-45.46
-23.19
-0.81
19.77
37.28
51.09
60.99
67.09
69.75
69.54
67.24
63.71
59.73
55.87
52.45
49.52
46.98
44.64
42.31
39.78
36.91
33.57
29.59
24.83
19.19
12.76
5.82
-1.23
-8.01
-14.37
-20.50
-26.90
-34.22
-42.98
-53.38
-65.00
-76.81
-87.17
-94.13
-95.88
-91.23
-79.98
-63.04
-42.22
-19.76
2.24
22.11
38.86
51.99
61.41
67.27
69.92
69.95
68.14
65.39
62.45
59.83
57.60
55.50
53.12
50.19
46.75
43.15
39.91
37.37
35.43
33.59
31.07
27.19
21.66
14.72
6.96
-0.92
-8.43
-15.47
-22.26
-29.26
-36.99
-45.81
-55.81
-66.59
-77.12
-85.80
-90.70
-90.14
-83.22
-70.19
-52.32
-31.57
-9.93
10.96
29.94
46.19
59.07
68.08
72.99
74.09
72.16
68.37
63.88
59.58
55.93
52.98
50.59
48.46
46.27
43.74
40.67
37.09
33.29
29.69
26.58
23.89
21.16
17.74
13.19
7.52
1.23
-4.98
-10.60
-15.62
-20.49
-25.94
-32.67
-41.06
-51.06
-62.15
-73.29
-82.98
-89.38
-90.79
-86.09
-75.17
-59.02
-39.42
-18.44
2.04
20.55
36.06
47.80
55.34
58.60
58.08
54.82
50.21
45.52
41.60
38.66
36.43
34.49
32.55
30.55
28.67
27.09
25.88
24.95
24.02
22.79
20.92
18.12
14.20
9.14
3.18
-3.29
-9.78
-15.90
-21.56
-26.91
-32.35
-38.35
-45.26
-53.14
-61.62
-69.85
-76.54
-80.23
-79.58
-73.79
-62.89
-47.66
-29.59
-10.42
8.13
24.58
37.83
47.21
52.57
54.19
52.78
49.27
44.62
39.66
35.00
31.02
27.85
25.46
23.63
22.04
20.41
18.62
16.72
14.86
13.14
11.41
9.31
6.36
2.23
-3.07
-9.23
-15.75
-22.16
-28.28
-34.21
-40.36
-47.21
-55.07
-63.81
-72.68
-80.31
-84.99
-85.12
-79.72
-68.76
-53.27
-34.90
-15.57
3.01
19.58
33.31
43.69
50.49
53.79
53.96
51.74
48.01
43.64
39.23
35.08
31.24
27.61
24.21
21.11
18.49
16.41
14.79
13.35
11.64
9.27
5.94
1.60
-3.60
-9.32
-15.28
-21.26
-27.29
-33.58
-40.52
-48.48
-57.68
-67.97
-78.62
-88.37
-95.52
-98.36
-95.62
-86.86
-72.62
-54.28
-33.68
-12.72
7.04
24.42
38.69
49.45
56.59
60.29
60.97
59.28
55.99
51.85
47.49
43.40
39.85
36.96
34.71
32.99
31.63
30.40
29.01
27.09
24.26
20.20
14.82
8.33
1.14
-6.25
-13.46
-20.46
-27.47
-35.01
-43.60
-53.60
-64.96
-77.05
-88.61
-97.88
-102.95
-102.31
-95.26
-82.16
-64.34
-43.70
-22.24
-1.61
17.03
32.95
45.75
55.17
61.10
63.65
63.23
60.61
56.79
52.76
49.22
46.40
44.11
41.90
39.44
36.68
33.90
31.49
29.61
28.05
26.23
23.44
19.24
13.58
6.79
-0.59
-8.11
-15.57
-23.02
-30.68
-38.86
-47.83
-57.80
-68.68
-79.95
-90.43
-98.43
-102.04
-99.73
-90.85
-75.92
-56.46
-34.57
-12.34
8.58
27.15
42.75
55.01
63.67
68.65
70.17
68.92
65.94
62.40
59.25
56.93
55.30
53.91
52.24
50.09
47.57
45.03
42.73
40.66
38.48
35.67
31.79
26.66
20.40
13.37
5.96
-1.55
-9.07
-16.61
-24.27
-32.10
-40.23
-48.91
-58.48
-69.17
-80.76
-92.21
-101.72
-107.07
-106.28
-98.32
-83.53
-63.44
-40.32
-16.48
6.22
26.61
44.01
58.08
68.59
75.42
78.71
78.96
76.97
73.75
70.19
66.92
64.20
62.01
60.21
58.60
56.95
55.05
52.71
49.86
46.57
43.06
39.54
36.01
32.30
28.00
22.72
16.29
8.86
0.81
-7.38
-15.30
-22.73
-29.69
-36.40
-43.27
-50.80
-59.44
-69.32
-79.94
-90.06
-97.79
-101.04
-98.10
-88.30
-72.15
-51.34
-28.21
-5.17
15.78
33.31
46.86
56.42
62.31
65.04
65.16
63.25
60.00
56.12
52.32
49.16
46.89
45.43
44.45
43.55
42.44
40.99
39.20
37.08
34.65
31.80
28.45
24.50
19.91
14.70
8.96
2.83
-3.46
-9.67
-15.63
-21.27
-26.72
-32.29
-38.36
-45.28
-53.23
-62.10
-71.31
-79.82
-86.17
-88.75
-86.24
-77.99
-64.36
-46.67
-26.84
-6.92
11.43
27.11
39.54
48.49
53.93
55.96
55.04
51.93
47.68
43.35
39.66
36.90
34.89
33.27
31.74
30.12
28.43
26.69
24.92
23.08
21.12
18.94
16.42
13.32
9.30
4.11
-2.28
-9.54
-17.05
-24.12
-30.35
-35.80
-41.03
-46.78
-53.71
-62.04
-71.44
-81.05
-89.55
-95.39
-96.99
-93.12
-83.22
-67.69
-47.93
-26.06
-4.36
15.22
31.49
44.02
52.94
58.61
61.37
61.52
59.43
55.66
51.02
46.39
42.48
39.63
37.72
36.39
35.16
33.73
32.01
30.09
28.07
25.99
23.70
20.99
17.60
13.34
8.17
2.21
-4.29
-11.02
-17.70
-24.20
-30.52
-36.82
-43.38
-50.49
-58.46
-67.41
-77.11
-86.76
-94.93
-99.80
-99.57
-93.14
-80.48
-62.71
-41.79
-19.88
1.18
20.19
36.48
49.69
59.52
65.70
68.15
67.25
63.90
59.35
54.82
51.16
48.68
47.17
46.22
45.40
44.45
43.22
41.59
39.50
36.91
33.91
30.65
27.27
23.76
19.90
15.40
10.01
3.71
-3.22
-10.34
-17.25
-23.71
-29.74
-35.58
-41.57
-48.10
-55.52
-63.98
-73.27
-82.63
-90.68
-95.59
-95.59
-89.45
-76.99
-59.21
-38.05
-15.84
5.25
23.61
38.37
49.29
56.56
60.61
61.97
61.17
58.79
55.46
51.80
48.35
45.47
43.26
41.55
40.05
38.56
37.00
35.46
33.99
32.51
30.79
28.54
25.62
22.02
17.89
13.32
8.30
2.79
-3.22
-9.56
-15.97
-22.24
-28.38
-34.59
-41.21
-48.50
-56.54
-65.24
-74.28
-83.08
-90.67
-95.71
-96.71
-92.46
-82.48
-67.31
-48.34
-27.45
-6.50
12.98
29.93
43.61
53.58
59.65
62.00
61.26
58.42
54.58
50.72
47.46
44.99
43.16
41.69
40.27
38.69
36.89
34.92
32.90
30.93
29.04
27.11
24.92
22.20
18.69
14.26
8.89
2.75
-3.86
-10.54
-16.91
-22.68
-27.80
-32.49
-37.20
-42.47
-48.78
-56.33
-64.96
-74.05
-82.46
-88.69
-91.11
-88.38
-79.90
-66.07
-48.32
-28.65
-9.09
8.81
24.16
36.60
46.03
52.36
55.57
55.89
53.88
50.46
46.62
43.12
40.26
37.96
35.94
34.04
32.24
30.73
29.66
28.98
28.47
27.75
26.50
24.53
21.88
18.67
15.05
11.07
6.67
1.79
-3.61
-9.42
-15.48
-21.63
-27.82
-34.14
-40.79
-47.97
-55.70
-63.72
-71.30
-77.33
-80.43
-79.28
-73.03
-61.61
-45.90
-27.53
-8.46
9.47
24.89
37.07
45.74
50.95
52.89
51.95
48.72
44.03
38.84
33.98
30.00
27.03
24.92
23.30
21.90
20.51
19.10
17.69
16.24
14.63
12.65
10.08
6.76
2.70
-1.92
-6.85
-11.84
-16.80
-21.78
-26.97
-32.56
-38.75
-45.67
-53.41
-61.85
-70.48
-78.28
-83.72
-85.14
-81.27
-71.71
-57.12
-39.07
-19.55
-0.46
16.69
30.90
41.60
48.49
51.60
51.28
48.22
43.47
38.17
33.28
29.38
26.53
24.48
22.76
21.06
19.23
17.36
15.61
14.07
12.63
10.97
8.68
5.39
0.98
-4.38
-10.28
-16.27
-22.11
-27.83
-33.80
-40.50
-48.33
-57.36
-67.21
-77.01
-85.48
-91.17
-92.60
-88.74
-79.19
-64.40
-45.69
-24.92
-4.16
14.80
30.64
42.71
50.81
55.18
56.28
54.79
51.49
47.24
42.79
38.66
35.03
31.77
28.61
25.35
22.02
18.83
16.01
13.61
11.33
8.61
4.81
-0.45
-7.15
-14.88
-23.05
-31.15
-39.04
-46.98
-55.47
-65.09
-76.11
-88.35
-100.98
-112.54
-121.14
-124.81
-121.97
-111.86
-94.78
-72.03
-45.65
-17.91
9.11
33.72
54.76
71.50
83.63
91.24
94.87
95.47
94.11
91.78
89.07
86.08
82.57
78.31
73.32
67.93
62.73
58.18
54.40
51.09
47.70
43.69
38.77
32.96
26.49
19.62
12.49
5.12
-2.56
-10.63
-19.24
-28.53
-38.68
-49.74
-61.48
-73.11
-83.26
-90.14
-92.01
-87.69
-77.01
-60.84
-40.90
-19.27
2.11
21.70
38.49
51.89
61.63
67.72
70.42
70.27
68.03
64.55
60.61
56.75
53.23
50.11
47.35
44.89
42.74
40.92
39.39
38.01
36.56
34.73
32.23
28.79
24.26
18.65
12.15
5.10
-2.04
-8.89
-15.28
-21.39
-27.68
-34.80
-43.28
-53.33
-64.57
-75.88
-85.55
-91.58
-92.15
-86.20
-73.80
-56.15
-35.27
-13.43
7.39
25.82
41.13
52.95
61.18
65.84
67.11
65.48
61.71
56.84
51.92
47.80
44.95
43.33
42.53
41.95
41.10
39.77
38.07
36.28
34.53
32.72
30.47
27.36
23.15
17.96
12.08
5.87
-0.48
-6.92
-13.50
-20.18
-26.89
-33.60
-40.49
-47.89
-56.09
-64.96
-73.65
-80.61
-83.95
-82.05
-74.11
-60.46
-42.48
-22.20
-1.72
17.21
33.37
46.03
54.82
59.58
60.45
57.98
53.15
47.28
41.74
37.44
34.70
33.18
32.23
31.21
29.87
28.32
26.86
25.73
24.82
23.74
21.96
19.00
14.71
9.25
3.07
-3.27
-9.27
-14.63
-19.37
-23.82
-28.51
-34.06
-40.92
-49.15
-58.18
-66.84
-73.46
-76.27
-73.93
-65.94
-52.93
-36.40
-18.36
-0.72
15.07
28.15
38.07
44.69
48.04
48.35
46.18
42.38
37.91
33.56
29.78
26.58
23.70
20.93
18.25
15.90
14.16
13.19
12.79
12.41
11.34
8.94
4.93
-0.51
-6.86
-13.46
-19.75
-25.55
-30.99
-36.51
-42.62
-49.71
-57.86
-66.70
-75.30
-82.23
-85.82
-84.52
-77.42
-64.58
-47.15
-27.12
-6.80
11.76
27.12
38.63
46.25
50.35
51.52
50.40
47.68
44.00
39.90
35.77
31.89
28.41
25.40
22.93
20.95
19.34
17.84
16.13
13.92
11.00
7.30
2.85
-2.27
-7.98
-14.19
-20.76
-27.58
-34.61
-42.05
-50.25
-59.57
-70.02
-80.85
-90.53
-96.98
-98.21
-92.99
-81.28
-64.22
-43.74
-21.97
-0.74
18.61
35.21
48.51
58.19
64.19
66.76
66.51
64.26
60.89
57.07
53.20
49.38
45.55
41.72
38.03
34.70
31.92
29.66
27.62
25.25
22.00
17.47
11.63
4.77
-2.61
-10.06
-17.35
-24.52
-31.89
-39.87
-48.90
-59.16
-70.46
-82.01
-92.40
-99.82
-102.41
-98.84
-88.72
-72.75
-52.50
-29.99
-7.14
14.46
33.62
49.47
61.44
69.25
73.09
73.63
71.88
68.94
65.63
62.33
59.02
55.52
51.74
47.80
44.03
40.77
38.17
36.10
34.17
31.93
28.93
24.93
19.81
13.65
6.62
-1.02
-8.92
-16.80
-24.46
-31.99
-39.72
-48.22
-57.96
-69.06
-80.87
-91.98
-100.38
-104.01
-101.33
-91.78
-75.96
-55.43
-32.33
-8.85
13.14
32.30
47.91
59.75
68.00
73.09
75.59
76.06
75.00
72.84
69.94
66.64
63.29
60.22
57.61
55.54
53.89
52.42
50.86
48.98
46.63
43.77
40.40
36.52
32.11
27.10
21.36
14.82
7.53
-0.34
-8.44
-16.41
-24.00
-31.16
-38.08
-45.17
-52.84
-61.44
-71.15
-81.81
-92.80
-102.94
-110.55
-113.76
-110.97
-101.44
-85.56
-64.83
-41.48
-17.83
4.21
23.47
39.40
51.87
60.96
66.78
69.59
69.84
68.24
65.63
62.76
60.12
57.83
55.76
53.69
51.51
49.35
47.42
45.91
44.83
43.94
42.88
41.23
38.70
35.10
30.48
24.96
18.78
12.20
5.43
-1.35
-8.04
-14.61
-21.03
-27.31
-33.49
-39.72
-46.23
-53.39
-61.53
-70.66
-80.24
-89.05
-95.30
-97.14
-93.19
-83.04
-67.44
-48.06
-26.99
-6.27
12.55
28.49
41.06
50.09
55.67
58.09
57.88
55.74
52.43
48.67
44.99
41.75
39.13
37.22
36.02
35.36
34.97
34.51
33.64
32.17
30.11
27.64
24.98
22.23
19.30
15.94
11.89
7.04
1.52
-4.37
-10.33
-16.21
-22.05
-28.06
-34.49
-41.50
-49.08
-57.01
-64.85
-71.91
-77.21
-79.60
-78.03
-71.83
-61.02
-46.36
-29.22
-11.26
5.92
21.05
33.29
42.17
47.51
49.45
48.39
45.05
40.38
35.38
30.90
27.39
24.92
23.18
21.76
20.35
18.89
17.54
16.51
15.87
15.44
14.81
13.42
10.85
6.95
1.95
-3.68
-9.39
-14.79
-19.77
-24.52
-29.41
-34.82
-41.03
-48.14
-55.91
-63.72
-70.52
-74.91
-75.47
-71.19
-61.90
-48.36
-32.05
-14.77
1.82
16.54
28.63
37.73
43.67
46.48
46.42
44.00
39.97
35.08
30.04
25.32
21.17
17.68
14.84
12.61
10.97
9.86
9.18
8.69
8.03
6.75
4.48
1.04
-3.44
-8.59
-13.96
-19.23
-24.35
-29.61
-35.48
-42.38
-50.43
-59.25
-67.96
-75.23
-79.56
-79.65
-74.73
-64.82
-50.68
-33.75
-15.74
1.68
17.18
29.83
39.17
45.08
47.68
47.35
44.68
40.41
35.36
30.24
25.47
21.20
17.44
14.17
11.46
9.42
8.07
7.16
6.18
4.55
1.84
-2.08
-6.97
-12.44
-18.17
-24.01
-30.02
-36.37
-43.28
-50.92
-59.34
-68.34
-77.23
-84.77
-89.24
-88.88
-82.45
-69.76
-51.86
-30.79
-9.04
11.17
28.25
41.49
50.83
56.64
59.46
59.85
58.31
55.34
51.33
46.67
41.69
36.71
32.08
28.11
24.99
22.71
21.01
19.41
17.35
14.33
10.13
4.79
-1.40
-8.06
-14.85
-21.62
-28.44
-35.64
-43.64
-52.83
-63.27
-74.45
-85.22
-93.81
-98.28
-96.96
-89.04
-74.81
-55.70
-33.80
-11.38
9.64
28.02
43.12
54.76
62.99
67.89
69.70
68.82
65.94
61.95
57.70
53.82
50.50
47.58
44.74
41.77
38.74
35.90
33.49
31.42
29.22
26.21
21.79
15.79
8.57
0.84
-6.70
-13.65
-20.19
-26.95
-34.79
-44.41
-56.06
-69.24
-82.67
-94.36
-102.08
-103.86
-98.63
-86.50
-68.75
-47.45
-24.84
-2.83
17.26
34.70
49.16
60.52
68.75
73.98
76.47
76.64
75.05
72.25
68.79
65.10
61.54
58.32
55.54
53.15
51.02
48.99
46.93
44.69
42.11
38.94
34.86
29.64
23.17
15.66
7.51
-0.78
-8.80
-16.44
-23.88
-31.53
-39.85
-49.27
-59.99
-71.86
-84.19
-95.65
-104.36
-108.30
-105.85
-96.42
-80.68
-60.39
-37.81
-15.03
6.44
25.77
42.47
56.15
66.39
72.88
75.67
75.37
72.99
69.69
66.35
63.38
60.72
58.09
55.30
52.34
49.45
46.89
44.76
42.97
41.24
39.25
36.73
33.47
29.33
24.15
17.88
10.59
2.61
-5.53
-13.35
-20.50
-27.06
-33.41
-40.20
-47.98
-57.03
-67.11
-77.33
-86.31
-92.31
-93.69
-89.26
-78.62
-62.40
-42.07
-19.66
2.70
23.17
40.47
53.86
63.15
68.52
70.44
69.57
66.62
62.36
57.51
52.72
48.48
45.07
42.51
40.57
38.90
37.17
35.23
33.10
30.91
28.71
26.39
23.73
20.46
16.47
11.78
6.47
0.67
-5.50
-11.87
-18.19
-24.21
-29.84
-35.24
-40.86
-47.27
-54.91
-63.82
-73.52
-82.94
-90.49
-94.42
-93.12
-85.69
-72.24
-54.01
-33.04
-11.64
8.21
25.25
38.90
49.03
55.73
59.17
59.65
57.66
54.01
49.60
45.32
41.75
39.17
37.54
36.60
35.95
35.24
34.24
32.85
31.13
29.16
26.94
24.35
21.10
16.93
11.74
5.67
-0.92
-7.65
-14.22
-20.55
-26.72
-32.93
-39.32
-46.04
-53.28
-61.19
-69.76
-78.57
-86.61
-92.34
-94.02
-90.31
-80.75
-66.01
-47.64
-27.61
-7.71
10.69
26.76
39.99
49.97
56.40
59.17
58.63
55.59
51.20
46.65
42.80
39.99
38.04
36.52
34.99
33.19
31.12
28.88
26.57
24.19
21.66
18.85
15.63
11.82
7.26
1.83
-4.41
-11.22
-18.17
-24.87
-31.12
-37.02
-42.95
-49.41
-56.79
-65.19
-74.21
-82.99
-90.22
-94.32
-93.86
-87.85
-76.15
-59.55
-39.59
-18.21
2.70
21.66
37.67
50.20
59.10
64.45
66.49
65.67
62.64
58.20
53.24
48.56
44.76
42.02
40.16
38.70
37.12
35.11
32.64
29.95
27.31
24.87
22.53
19.93
16.66
12.38
7.00
0.67
-6.29
-13.51
-20.67
-27.60
-34.31
-40.96
-47.87
-55.45
-64.04
-73.73
-84.09
-94.09
-102.12
-106.31
-105.02
-97.40
-83.66
-65.10
-43.69
-21.56
-0.48
18.38
34.43
47.46
57.44
64.42
68.51
70.04
69.51
67.55
64.75
61.55
58.19
54.79
51.40
48.12
45.06
42.33
39.95
37.88
35.97
33.99
31.64
28.59
24.55
19.36
13.10
6.07
-1.29
-8.55
-15.43
-21.88
-28.01
-34.09
-40.41
-47.29
-55.06
-63.98
-74.01
-84.66
-94.75
-102.50
-105.85
-103.12
-93.54
-77.65
-57.24
-34.77
-12.71
7.18
24.02
37.80
48.82
57.34
63.36
66.75
67.51
65.94
62.75
58.81
54.91
51.57
48.92
46.84
45.09
43.45
41.80
40.08
38.25
36.25
33.97
31.22
27.76
23.43
18.20
12.25
5.90
-0.47
-6.63
-12.54
-18.45
-24.69
-31.63
-39.48
-48.29
-57.83
-67.63
-76.85
-84.33
-88.66
-88.48
-82.86
-71.70
-55.76
-36.59
-16.12
3.80
21.74
36.76
48.46
56.68
61.50
63.07
61.73
58.06
52.93
47.36
42.33
38.46
35.86
34.15
32.70
31.01
28.96
26.84
25.06
23.83
22.96
21.89
19.93
16.63
11.95
6.23
-0.03
-6.37
-12.54
-18.46
-24.22
-29.98
-35.99
-42.54
-49.89
-58.09
-66.77
-74.94
-81.19
-83.89
-81.71
-73.98
-60.98
-43.83
-24.26
-4.21
14.60
30.81
43.61
52.58
57.67
59.14
57.50
53.56
48.33
42.84
37.96
34.15
31.39
29.34
27.55
25.69
23.71
21.75
19.97
18.37
16.77
14.83
12.21
8.71
4.28
-0.90
-6.55
-12.37
-18.20
-23.98
-29.91
-36.28
-43.38
-51.38
-60.07
-68.78
-76.32
-81.22
-82.02
-77.69
-68.02
-53.70
-36.19
-17.32
1.15
17.81
31.72
42.30
49.27
52.58
52.50
49.68
45.08
39.77
34.64
30.21
26.52
23.29
20.20
17.06
13.92
10.93
8.18
5.56
2.77
-0.61
-4.89
-10.13
-16.19
-22.75
-29.49
-36.18
-42.79
-49.42
-56.37
-63.99
-72.54
-81.98
-91.76
-100.67
-107.06
-109.17
-105.55
-95.54
-79.43
-58.43
-34.39
-9.37
14.65
36.07
53.84
67.42
76.73
82.07
83.94
82.97
79.83
75.14
69.49
63.40
57.35
51.72
46.79
42.68
39.31
36.47
33.79
30.86
27.26
22.72
17.11
10.59
3.44
-3.97
-11.37
-18.74
-26.33
-34.55
-43.75
-53.99
-64.73
-74.81
-82.56
-86.19
-84.27
-76.21
-62.49
-44.58
-24.52
-4.40
14.09
29.82
42.17
50.84
55.77
57.16
55.56
51.82
46.95
41.86
37.10
32.87
29.09
25.69
22.67
20.05
17.74
15.50
12.91
9.63
5.53
0.71
-4.57
-10.11
-15.87
-21.95
-28.52
-35.70
-43.60
-52.34
-62.04
-72.58
-83.33
-92.89
-99.22
-100.21
-94.40
-81.62
-63.05
-40.89
-17.60
4.71
24.61
41.21
54.08
62.98
67.95
69.42
68.21
65.35
61.77
58.03
54.27
50.36
46.23
41.99
37.97
34.51
31.72
29.40
27.04
24.04
19.94
14.54
7.93
0.39
-7.73
-16.13
-24.63
-33.31
-42.44
-52.44
-63.70
-76.20
-89.19
-101.09
-109.70
-112.76
-108.67
-97.07
-78.89
-56.11
-31.14
-6.22
16.92
37.13
53.73
66.43
75.17
80.24
82.23
81.95
80.27
77.92
75.32
72.59
69.62
66.22
62.33
58.09
53.86
50.12
47.19
45.11
43.46
41.47
38.20
32.98
25.62
16.54
6.59
-3.27
-12.33
-20.37
-27.70
-35.05
-43.27
-53.11
-64.86
-78.15
-91.70
-103.47
-110.96
-111.93
-105.07
-90.46
-69.61
-44.97
-19.24
5.32
27.19
45.60
60.27
71.18
78.42
82.26
83.29
82.29
80.14
77.55
74.91
72.28
69.58
66.68
63.66
60.67
57.90
55.39
53.02
50.57
47.78
44.45
40.44
35.65
29.95
23.28
15.66
7.34
-1.27
-9.71
-17.62
-24.89
-31.77
-38.76
-46.52
-55.58
-66.13
-77.78
-89.38
-99.16
-105.02
-105.09
-98.32
-84.77
-65.73
-43.28
-19.77
2.76
22.90
39.89
53.41
63.39
69.84
72.91
72.93
70.57
66.65
62.13
57.77
54.10
51.31
49.27
47.73
46.36
44.91
43.24
41.37
39.36
37.26
34.95
32.17
28.56
23.83
17.93
11.09
3.77
-3.51
-10.38
-16.68
-22.54
-28.25
-34.22
-40.88
-48.55
-57.35
-66.92
-76.41
-84.35
-89.03
-88.81
-82.65
-70.50
-53.39
-33.16
-12.02
8.00
25.43
39.41
49.66
56.19
59.19
59.03
56.32
51.94
46.90
42.17
38.37
35.70
33.92
32.59
31.35
30.00
28.55
27.15
25.86
24.59
23.07
20.98
17.98
13.93
8.90
3.18
-2.80
-8.61
-13.97
-18.85
-23.59
-28.70
-34.82
-42.38
-51.42
-61.44
-71.34
-79.58
-84.44
-84.42
-78.68
-67.29
-51.31
-32.53
-12.99
5.43
21.43
34.32
43.86
50.09
53.08
53.09
50.55
46.25
41.19
36.38
32.50
29.75
27.89
26.43
24.92
23.21
21.39
19.65
18.13
16.75
15.17
12.96
9.78
5.54
0.46
-5.08
-10.66
-16.08
-21.39
-26.90
-33.01
-40.08
-48.21
-57.23
-66.57
-75.26
-81.93
-85.02
-83.22
-75.88
-63.41
-47.18
-29.18
-11.36
4.87
18.74
29.99
38.55
44.29
47.10
47.10
44.82
41.11
36.93
32.98
29.54
26.49
23.61
20.71
17.87
15.34
13.38
12.00
10.95
9.69
7.66
4.47
0.06
-5.32
-11.26
-17.43
-23.70
-30.19
-37.08
-44.54
-52.63
-61.20
-69.89
-77.97
-84.30
-87.46
-85.97
-78.82
-65.86
-48.06
-27.29
-5.87
14.05
30.92
43.98
53.10
58.53
60.66
59.97
56.99
52.43
47.06
41.66
36.83
32.88
29.80
27.35
25.24
23.26
21.35
19.44
17.45
15.08
11.97
7.82
2.55
-3.61
-10.25
-16.99
-23.70
-30.58
-38.09
-46.70
-56.66
-67.79
-79.37
-90.16
-98.42
-102.31
-100.30
-91.66
-76.80
-57.24
-35.22
-13.05
7.38
24.89
39.00
49.63
56.89
60.98
62.20
61.01
58.10
54.23
50.14
46.32
42.96
39.99
37.21
34.50
31.88
29.50
27.44
25.59
23.50
20.63
16.50
11.01
4.41
-2.77
-10.02
-17.06
-23.97
-31.11
-39.01
-48.13
-58.65
-70.32
-82.20
-92.72
-99.86
-101.63
-96.67
-84.73
-66.86
-45.09
-21.90
0.43
20.27
36.76
49.64
58.96
64.92
67.78
67.94
66.08
63.04
59.64
56.46
53.65
51.05
48.35
45.37
42.17
39.06
36.33
34.13
32.23
30.09
27.04
22.51
16.29
8.63
0.17
-8.33
-16.20
-23.20
-29.55
-35.89
-43.06
-51.82
-62.47
-74.64
-87.14
-98.09
-105.25
-106.60
-100.94
-88.29
-69.89
-47.88
-24.65
-2.26
17.88
35.03
48.91
59.45
66.68
70.70
71.82
70.62
67.90
64.47
61.01
57.82
54.86
51.89
48.67
45.17
41.64
38.42
35.80
33.75
31.93
29.78
26.75
22.51
17.04
10.62
3.70
-3.32
-10.19
-16.90
-23.69
-30.94
-39.05
-48.30
-58.63
-69.53
-79.95
-88.39
-93.12
-92.64
-86.03
-73.30
-55.48
-34.37
-12.13
9.17
27.99
43.37
54.96
62.79
67.10
68.27
66.74
63.17
58.34
53.14
48.38
44.61
41.96
40.16
38.70
37.07
35.06
32.76
30.52
28.66
27.16
25.61
23.31
19.64
14.37
7.78
0.56
-6.54
-13.00
-18.76
-24.15
-29.78
-36.24
-43.95
-53.02
-63.12
-73.35
-82.27
-88.08
-89.00
-83.79
-72.21
-55.20
-34.62
-12.78
8.13
26.49
41.37
52.42
59.63
63.19
63.43
60.84
56.16
50.35
44.42
39.16
35.04
32.03
29.79
27.87
25.95
23.95
21.99
20.24
18.69
17.06
14.92
11.82
7.56
2.29
-3.58
-9.55
-15.28
-20.65
-25.84
-31.19
-37.08
-43.80
-51.47
-59.89
-68.44
-75.99
-80.98
-81.78
-77.19
-66.87
-51.58
-32.96
-13.04
6.29
23.60
37.98
48.89
56.00
59.20
58.75
55.38
50.17
44.37
38.97
34.43
30.72
27.48
24.36
21.22
18.20
15.60
13.62
12.24
11.09
9.60
7.22
3.62
-1.15
-6.74
-12.65
-18.54
-24.26
-29.93
-35.85
-42.36
-49.72
-57.98
-66.82
-75.38
-82.28
-85.81
-84.41
-77.19
-64.33
-47.08
-27.38
-7.34
11.31
27.40
40.31
49.75
55.61
57.96
57.13
53.79
48.86
43.32
37.97
33.23
29.21
25.76
22.67
19.86
17.33
15.14
13.22
11.36
9.17
6.26
2.34
-2.62
-8.45
-14.87
-21.67
-28.78
-36.28
-44.38
-53.18
-62.63
-72.33
-81.42
-88.55
-92.12
-90.59
-83.06
-69.62
-51.45
-30.58
-9.24
10.67
27.90
41.86
52.37
59.40
62.98
63.30
60.81
56.27
50.61
44.70
39.16
34.32
30.24
26.83
23.97
21.51
19.25
16.91
14.19
10.81
6.61
1.55
-4.32
-10.87
-17.98
-25.57
-33.69
-42.52
-52.32
-63.28
-75.23
-87.36
-98.13
-105.51
-107.45
-102.57
-90.59
-72.52
-50.34
-26.48
-3.18
17.89
35.75
50.05
60.78
68.08
72.13
73.25
71.82
68.42
63.77
58.52
53.20
48.14
43.47
39.25
35.51
32.26
29.46
26.88
24.14
20.78
16.40
10.78
4.03
-3.52
-11.51
-19.63
-27.83
-36.28
-45.34
-55.43
-66.88
-79.64
-93.11
-105.97
-116.28
-121.88
-121.00
-112.83
-97.82
-77.63
-54.55
-30.93
-8.65
11.10
27.65
40.62
49.77
54.96
56.34
54.47
50.36
45.30
40.55
37.06
35.21
34.86
35.51
36.65
38.04
39.72
41.94
44.80
48.00
50.84
52.38
51.83
48.91
43.86
37.30
29.89
22.01
13.71
4.72
-5.31
-16.69
-29.56
-43.73
-58.58
-72.89
-84.89
-92.49
-93.84
-87.84
-74.57
-55.26
-32.03
-7.28
16.81
38.63
57.19
71.99
82.90
89.99
93.49
93.79
91.51
87.38
82.22
76.79
71.62
66.94
62.71
58.72
54.81
50.90
47.11
43.53
40.18
36.81
33.05
28.44
22.70
15.82
8.05
-0.21
-8.57
-16.70
-24.43
-31.80
-39.04
-46.62
-55.12
-64.95
-76.02
-87.38
-97.23
-103.23
-103.23
-95.95
-81.42
-61.09
-37.32
-12.70
10.51
30.74
47.10
59.29
67.32
71.50
72.36
70.67
67.34
63.27
59.18
55.45
52.18
49.25
46.50
43.84
41.30
39.01
37.09
35.64
34.55
33.50
31.94
29.26
24.99
19.07
11.90
4.17
-3.37
-10.30
-16.65
-22.91
-29.72
-37.66
-46.98
-57.55
-68.76
-79.55
-88.40
-93.55
-93.36
-86.86
-74.10
-56.22
-35.22
-13.35
7.42
25.76
40.92
52.63
60.77
65.33
66.45
64.55
60.44
55.12
49.59
44.58
40.41
37.02
34.18
31.70
29.53
27.84
26.75
26.23
25.95
25.28
23.53
20.19
15.14
8.72
1.59
-5.55
-12.21
-18.24
-23.83
-29.43
-35.54
-42.56
-50.68
-59.76
-69.18
-77.81
-84.11
-86.45
-83.56
-74.99
-61.21
-43.61
-24.04
-4.38
13.80
29.43
41.85
50.77
56.16
58.22
57.43
54.49
50.21
45.39
40.66
36.37
32.61
29.33
26.45
23.95
21.85
20.20
18.93
17.80
16.40
14.26
11.03
6.58
1.08
-5.09
-11.53
-17.95
-24.24
-30.46
-36.78
-43.46
-50.76
-58.86
-67.60
-76.31
-83.64
-87.84
-87.15
-80.45
-67.73
-50.18
-29.88
-9.19
9.79
25.67
37.79
46.02
50.60
51.88
50.38
46.76
41.84
36.49
31.46
27.16
23.62
20.57
17.69
14.80
12.02
9.61
7.78
6.42
5.15
3.37
0.60
-3.38
-8.42
-14.18
-20.28
-26.55
-33.06
-40.09
-47.97
-56.87
-66.61
-76.49
-85.32
-91.54
-93.55
-90.07
-80.59
-65.48
-46.06
-24.30
-2.45
17.43
33.78
45.78
53.30
56.81
57.13
55.19
51.84
47.75
43.34
38.89
34.52
30.37
26.55
23.18
20.35
17.99
15.90
13.77
11.21
7.94
3.81
-1.14
-6.78
-12.97
-19.61
-26.74
-34.51
-43.18
-52.91
-63.71
-75.15
-86.23
-95.39
-100.75
-100.53
-93.58
-79.82
-60.35
-37.26
-13.16
9.48
28.78
43.80
54.42
61.10
64.55
65.46
64.42
61.86
58.20
53.85
49.23
44.73
40.60
36.99
33.87
31.08
28.35
25.36
21.80
17.48
12.39
6.66
0.48
-5.99
-12.68
-19.64
-27.00
-34.93
-43.65
-53.38
-64.21
-75.80
-87.21
-96.77
-102.38
-102.03
-94.55
-80.04
-59.93
-36.52
-12.31
10.62
30.96
48.02
61.49
71.19
77.01
79.12
78.02
74.67
70.17
65.55
61.39
57.79
54.48
51.06
47.26
43.11
38.85
34.83
31.28
28.17
25.20
21.84
17.55
12.02
5.27
-2.31
-10.17
-17.84
-25.26
-32.78
-41.15
-51.13
-63.07
-76.54
-90.14
-101.71
-108.80
-109.36
-102.30
-87.88
-67.55
-43.51
-18.19
6.34
28.53
47.44
62.52
73.59
80.70
84.17
84.54
82.56
79.06
74.79
70.31
65.89
61.63
57.43
53.26
49.20
45.48
42.34
39.86
37.84
35.77
32.98
28.87
23.14
15.86
7.47
-1.38
-10.10
-18.20
-25.53
-32.25
-38.74
-45.54
-53.24
-62.36
-73.14
-85.27
-97.70
-108.55
-115.44
-116.10
-109.07
-94.28
-73.12
-48.05
-21.84
3.17
25.47
44.30
59.37
70.52
77.64
80.76
80.31
77.20
72.64
67.82
63.56
60.11
57.23
54.48
51.50
48.21
44.78
41.50
38.58
36.10
33.96
31.91
29.62
26.73
22.84
17.66
11.05
3.17
-5.54
-14.46
-23.05
-30.98
-38.37
-45.72
-53.71
-62.86
-73.20
-84.01
-93.82
-100.69
-102.70
-98.44
-87.46
-70.42
-48.95
-25.24
-1.53
20.28
38.87
53.51
63.95
70.29
72.91
72.42
69.63
65.46
60.80
56.30
52.27
48.69
45.34
41.95
38.41
34.76
31.26
28.25
25.98
24.49
23.50
22.40
20.43
17.00
11.85
5.23
-2.19
-9.61
-16.39
-22.33
-27.68
-33.01
-39.03
-46.33
-55.25
-65.64
-76.71
-86.97
-94.36
-96.76
-92.58
-81.35
-63.93
-42.29
-18.92
3.80
24.04
40.59
52.88
60.76
64.43
64.46
61.76
57.45
52.65
48.23
44.63
41.88
39.64
37.38
34.69
31.39
27.66
23.99
20.85
18.50
16.76
15.00
12.48
8.68
3.55
-2.50
-8.78
-14.71
-20.07
-25.04
-30.08
-35.71
-42.28
-49.91
-58.46
-67.54
-76.50
-84.36
-89.82
-91.48
-88.15
-79.17
-64.80
-46.15
-25.03
-3.52
16.46
33.47
46.66
55.68
60.55
61.61
59.41
54.84
48.93
42.81
37.37
33.08
29.87
27.30
24.82
22.11
19.23
16.54
14.43
13.02
11.99
10.66
8.34
4.62
-0.39
-6.18
-12.12
-17.78
-23.15
-28.60
-34.66
-41.80
-50.19
-59.71
-69.84
-79.68
-87.84
-92.68
-92.56
-86.35
-73.91
-56.25
-35.36
-13.63
6.72
24.16
37.95
48.00
54.54
57.95
58.63
57.10
54.01
50.18
46.32
42.91
40.04
37.45
34.73
31.61
28.13
24.61
21.49
19.14
17.63
16.71
15.85
14.36
11.66
7.37
1.46
-5.74
-13.73
-22.07
-30.64
-39.67
-49.54
-60.46
-71.98
-82.86
-91.26
-95.19
-93.13
-84.51
-69.87
-50.67
-28.94
-6.77
13.95
31.84
46.01
56.14
62.33
65.03
64.89
62.68
59.16
55.01
50.73
46.60
42.69
38.92
35.14
31.31
27.48
23.80
20.40
17.21
13.96
10.24
5.66
0.05
-6.49
-13.61
-20.89
-27.97
-34.75
-41.46
-48.65
-56.97
-66.84
-78.04
-89.41
-99.01
-104.53
-104.01
-96.48
-82.28
-62.89
-40.48
-17.29
4.79
24.38
40.60
52.99
61.37
65.91
67.11
65.73
62.67
58.74
54.51
50.31
46.28
42.42
38.76
35.40
32.46
30.03
28.06
26.31
24.30
21.46
17.30
11.61
4.60
-3.12
-10.78
-17.75
-23.90
-29.67
-35.89
-43.41
-52.74
-63.63
-75.08
-85.38
-92.44
-94.32
-89.66
-78.11
-60.48
-38.60
-14.87
8.27
28.87
45.70
58.27
66.69
71.37
72.89
71.93
69.15
65.17
60.56
55.73
50.99
46.49
42.34
38.58
35.22
32.27
29.63
27.13
24.49
21.29
17.18
11.94
5.66
-1.26
-8.27
-14.88
-20.93
-26.66
-32.67
-39.69
-48.28
-58.53
-69.84
-80.83
-89.53
-93.81
-91.95
-83.19
-68.05
-48.18
-25.96
-3.78
16.46
33.63
47.27
57.33
63.90
67.13
67.35
65.12
61.25
56.68
52.17
48.18
44.75
41.67
38.65
35.60
32.63
30.02
27.95
26.36
24.85
22.83
19.72
15.20
9.34
2.58
-4.45
-11.20
-17.37
-23.06
-28.74
-35.14
-42.92
-52.45
-63.48
-74.99
-85.27
-92.19
-93.77
-88.74
-76.90
-59.27
-37.80
-14.89
7.22
26.85
42.99
55.21
63.43
67.80
68.66
66.56
62.34
56.96
51.36
46.30
42.17
39.02
36.66
34.81
33.20
31.62
29.95
28.11
26.02
23.52
20.41
16.47
11.59
5.82
-0.54
-7.11
-13.50
-19.55
-25.29
-30.97
-36.97
-43.62
-51.21
-59.69
-68.58
-76.82
-82.81
-84.77
-81.29
-71.83
-57.00
-38.35
-17.90
2.36
20.86
36.55
48.73
57.00
61.19
61.51
58.62
53.61
47.74
42.14
37.54
34.16
31.82
30.13
28.74
27.47
26.31
25.33
24.47
23.48
21.92
19.30
15.34
10.08
3.96
-2.42
-8.51
-13.98
-18.90
-23.59
-28.55
-34.24
-40.99
-48.90
-57.65
-66.48
-74.14
-79.06
-79.66
-74.80
-64.19
-48.54
-29.48
-9.12
10.41
27.42
40.89
50.44
56.11
58.21
57.21
53.74
48.60
42.74
36.98
31.91
27.68
24.13
20.97
18.05
15.44
13.35
11.94
11.06
10.28
8.98
6.61
2.94
-1.91
-7.56
-13.51
-19.39
-25.08
-30.66
-36.42
-42.67
-49.64
-57.34
-65.36
-72.88
-78.57
-80.87
-78.38
-70.28
-56.73
-38.90
-18.72
1.65
20.25
35.73
47.31
54.74
58.14
57.93
54.84
49.82
43.98
38.35
33.64
30.10
27.56
25.53
23.54
21.26
18.63
15.82
12.99
10.20
7.29
3.92
-0.19
-5.21
-11.00
-17.23
-23.53
-29.65
-35.62
-41.72
-48.42
-56.15
-65.04
-74.63
-83.72
-90.54
-93.16
-90.08
-80.73
-65.70
-46.52
-25.23
-3.83
16.01
33.11
46.63
56.08
61.30
62.57
60.62
56.53
51.43
46.24
41.49
37.34
33.73
30.51
27.59
24.93
22.49
20.17
17.80
15.10
11.82
7.77
2.94
-2.55
-8.45
-14.54
-20.79
-27.37
-34.72
-43.31
-53.50
-65.23
-77.76
-89.68
-98.99
-103.61
-101.90
-93.14
-77.84
-57.57
-34.52
-10.91
11.40
31.14
47.50
60.02
68.42
72.69
73.13
70.47
65.74
60.05
54.38
49.34
45.15
41.67
38.60
35.64
32.61
29.49
26.32
23.05
19.54
15.50
10.66
4.83
-1.94
-9.39
-17.19
-25.06
-32.98
-41.19
-50.13
-60.18
-71.37
-83.10
-94.07
-102.48
-106.40
-104.32
-95.52
-80.36
-60.15
-36.89
-12.79
10.15
30.42
47.13
59.91
68.84
74.27
76.78
77.02
75.72
73.50
70.77
67.65
63.99
59.62
54.52
49.02
43.63
38.90
35.04
31.83
28.68
24.90
19.97
13.73
6.40
-1.55
-9.59
-17.27
-24.35
-30.92
-37.44
-44.71
-53.64
-64.86
-78.24
-92.53
-105.52
-114.44
-116.87
-111.38
-98.01
-78.15
-54.13
-28.54
-3.71
18.62
37.36
52.09
62.83
69.91
73.81
75.06
74.20
71.77
68.42
64.79
61.49
58.90
57.01
55.45
53.67
51.20
47.89
43.97
39.84
35.80
31.77
27.34
21.92
15.11
6.93
-2.21
-11.71
-21.09
-30.20
-39.20
-48.45
-58.19
-68.62
-79.83
-91.86
-104.55
-117.31
-128.87
-137.34
-140.52
-136.54
-124.45
-104.59
-78.54
-48.66
-17.52
12.65
40.19
63.99
83.40
98.04
107.78
112.85
113.87
111.85
108.00
103.45
98.98
94.94
91.31
87.88
84.46
81.00
77.56
74.16
70.75
67.21
63.38
59.17
54.52
49.38
43.60
36.97
29.27
20.40
10.54
0.14
-10.22
-19.95
-28.72
-36.53
-43.70
-50.81
-58.50
-67.34
-77.55
-88.84
-100.17
-109.79
-115.48
-115.16
-107.48
-92.35
-70.99
-45.59
-18.70
7.37
30.84
50.58
65.89
76.45
82.34
84.04
82.45
78.67
73.75
68.48
63.28
58.43
54.17
50.79
48.50
47.31
46.91
46.72
46.10
44.60
42.08
38.67
34.68
30.41
26.03
21.55
16.81
11.57
5.60
-1.19
-8.65
-16.44
-24.10
-31.25
-37.73
-43.71
-49.64
-56.12
-63.65
-72.33
-81.62
-90.23
-96.32
-97.88
-93.43
-82.49
-65.81
-45.12
-22.61
-0.34
20.13
37.83
52.18
62.83
69.58
72.45
71.82
68.45
63.40
57.72
52.30
47.72
44.23
41.81
40.29
39.39
38.72
37.87
36.50
34.45
31.74
28.63
25.38
22.15
18.94
15.54
11.70
7.19
1.93
-4.03
-10.55
-17.38
-24.20
-30.70
-36.67
-42.14
-47.42
-53.08
-59.72
-67.66
-76.64
-85.66
-93.08
-96.95
-95.52
-87.84
-74.07
-55.47
-34.08
-12.20
8.16
25.59
39.35
49.23
55.36
58.10
57.99
55.76
52.21
48.11
44.08
40.51
37.55
35.23
33.49
32.29
31.58
31.26
31.15
30.91
30.15
28.50
25.81
22.19
17.93
13.38
8.74
4.03
-0.88
-6.11
-11.69
-17.47
-23.28
-28.97
-34.54
-40.09
-45.87
-52.15
-59.25
-67.32
-76.11
-84.83
-92.00
-95.75
-94.35
-86.83
-73.36
-55.30
-34.74
-13.88
5.43
22.06
35.48
45.53
52.26
55.77
56.26
54.14
50.09
44.96
39.68
35.04
31.53
29.23
27.92
27.21
26.73
26.26
25.72
25.06
24.14
22.73
20.52
17.33
13.18
8.27
2.92
-2.60
-8.13
-13.67
-19.35
-25.26
-31.46
-37.94
-44.68
-51.71
-59.08
-66.83
-74.74
-82.17
-87.92
-90.55
-88.67
-81.51
-69.21
-52.78
-33.87
-14.24
4.56
21.34
35.31
45.87
52.70
55.72
55.29
52.19
47.54
42.53
38.15
34.90
32.72
31.19
29.69
27.81
25.41
22.73
20.15
17.99
16.38
15.14
13.90
12.21
9.70
6.13
1.47
-4.11
-10.34
-16.83
-23.26
-29.42
-35.32
-41.19
-47.39
-54.29
-62.05
-70.40
-78.53
-85.08
-88.36
-86.78
-79.41
-66.33
-48.72
-28.63
-8.33
10.29
26.09
38.60
47.79
53.74
56.52
56.34
53.69
49.46
44.68
40.26
36.73
34.13
32.20
30.57
29.00
27.39
25.73
24.04
22.30
20.46
18.36
15.81
12.60
8.55
3.67
-1.84
-7.63
-13.38
-18.88
-24.19
-29.58
-35.41
-42.04
-49.65
-58.15
-67.03
-75.24
-81.31
-83.62
-80.87
-72.49
-58.89
-41.37
-21.74
-1.90
16.55
32.49
45.24
54.42
59.88
61.68
60.25
56.37
51.18
45.85
41.30
37.93
35.59
33.79
32.03
30.05
27.95
26.02
24.52
23.47
22.59
21.39
19.39
16.22
11.75
6.13
-0.26
-6.92
-13.39
-19.45
-25.21
-31.08
-37.57
-45.07
-53.55
-62.47
-70.77
-77.03
-79.72
-77.59
-69.96
-57.01
-39.83
-20.20
-0.24
18.08
33.25
44.41
51.35
54.33
53.93
50.97
46.34
40.96
35.60
30.82
26.88
23.78
21.33
19.31
17.55
15.98
14.57
13.26
11.90
10.23
7.89
4.57
0.16
-5.22
-11.18
-17.25
-23.08
-28.61
-34.17
-40.32
-47.63
-56.36
-66.23
-76.23
-84.77
-90.02
-90.31
-84.64
-72.94
-56.16
-36.03
-14.69
5.79
23.71
37.92
47.89
53.61
55.49
54.28
50.93
46.43
41.69
37.33
33.68
30.73
28.28
26.07
23.92
21.79
19.73
17.86
16.12
14.31
12.03
8.85
4.50
-1.03
-7.40
-14.09
-20.61
-26.69
-32.50
-38.56
-45.61
-54.22
-64.44
-75.56
-85.96
-93.50
-95.97
-91.84
-80.71
-63.47
-42.00
-18.60
4.61
26.05
44.71
60.01
71.56
79.13
82.78
83.01
80.74
77.11
73.12
69.37
65.94
62.62
59.14
55.41
51.57
47.88
44.57
41.67
39.00
36.20
32.87
28.66
23.39
17.07
9.96
2.50
-4.85
-11.77
-18.22
-24.50
-31.18
-38.91
-48.08
-58.60
-69.60
-79.50
-86.23
-87.80
-82.83
-71.12
-53.68
-32.51
-10.02
11.53
30.42
45.62
56.64
63.41
66.10
65.12
61.17
55.14
48.05
40.88
34.38
28.98
24.87
21.99
20.28
19.60
19.78
20.55
21.44
21.87
21.23
19.03
15.04
9.33
2.20
-5.84
-14.14
-22.01
-28.86
-34.41
-38.83
-42.88
-47.72
-54.48
-63.75
-75.15
-87.20
-97.56
-103.69
-103.53
-96.14
-81.95
-62.54
-40.25
-17.46
3.88
22.54
37.96
50.01
58.79
64.43
67.10
67.10
64.95
61.46
57.54
53.97
51.26
49.44
48.21
47.09
45.74
44.08
42.27
40.55
38.91
37.02
34.30
30.18
24.45
17.32
9.38
1.31
-6.45
-13.85
-21.15
-28.78
-37.18
-46.69
-57.53
-69.62
-82.38
-94.58
-104.37
-109.63
-108.53
-100.20
-84.97
-64.38
-40.68
-16.26
6.82
27.11
43.78
56.51
65.31
70.48
72.52
72.06
69.79
66.42
62.59
58.77
55.26
52.13
49.27
46.48
43.60
40.62
37.63
34.81
32.19
29.59
26.64
22.89
18.07
12.16
5.47
-1.57
-8.56
-15.26
-21.70
-28.13
-34.90
-42.45
-51.16
-61.20
-72.36
-83.81
-94.03
-101.06
-102.92
-98.20
-86.53
-68.75
-46.76
-22.94
0.37
21.34
38.89
52.55
62.33
68.46
71.30
71.33
69.20
65.72
61.75
57.98
54.75
52.02
49.47
46.81
43.98
41.21
38.84
37.08
35.79
34.47
32.44
29.09
24.21
17.98
10.96
3.76
-3.06
-9.31
-15.10
-20.88
-27.23
-34.70
-43.65
-54.03
-65.26
-76.19
-85.23
-90.61
-90.79
-84.88
-72.94
-56.00
-35.77
-14.27
6.65
25.59
41.59
54.13
62.96
68.01
69.49
67.92
64.13
59.22
54.21
49.85
46.46
43.88
41.68
39.39
36.72
33.68
30.50
27.49
24.81
22.36
19.71
16.33
11.80
6.01
-0.68
-7.69
-14.41
-20.56
-26.29
-32.14
-38.77
-46.68
-55.99
-66.27
-76.58
-85.47
-91.25
-92.20
-87.19
-75.98
-59.45
-39.45
-18.27
1.95
19.65
33.96
44.61
51.61
55.13
55.52
53.33
49.44
44.82
40.37
36.65
33.80
31.58
29.65
27.69
25.59
23.42
21.34
19.44
17.64
15.66
13.10
9.56
4.87
-0.92
-7.50
-14.43
-21.34
-28.01
-34.54
-41.27
-48.73
-57.35
-67.17
-77.60
-87.27
-94.29
-96.74
-93.24
-83.42
-68.08
-48.88
-27.85
-6.92
12.43
29.20
42.77
52.78
59.06
61.71
61.19
58.30
54.09
49.57
45.49
42.20
39.61
37.38
35.10
32.56
29.77
26.93
24.21
21.60
18.85
15.53
11.24
5.75
-0.81
-8.05
-15.46
-22.61
-29.35
-35.83
-42.49
-49.86
-58.40
-68.24
-78.96
-89.46
-98.09
-102.89
-102.16
-94.97
-81.49
-62.99
-41.48
-19.14
2.16
21.17
37.16
49.83
59.08
64.92
67.54
67.38
65.11
61.59
57.63
53.81
50.43
47.43
44.65
41.92
39.25
36.76
34.59
32.69
30.76
28.25
24.57
19.31
12.46
4.46
-3.96
-12.11
-19.54
-26.23
-32.60
-39.30
-46.96
-55.99
-66.40
-77.68
-88.79
-98.17
-103.98
-104.50
-98.56
-86.02
-67.89
-46.12
-23.02
-0.73
19.23
36.08
49.59
59.81
66.84
70.83
72.08
71.09
68.56
65.23
61.68
58.24
54.95
51.70
48.39
45.02
41.69
38.58
35.84
33.50
31.45
29.42
27.04
23.90
19.62
13.97
6.94
-1.29
-10.30
-19.56
-28.58
-37.04
-44.95
-52.63
-60.64
-69.54
-79.52
-90.13
-100.15
-107.78
-111.08
-108.48
-99.28
-83.80
-63.36
-39.88
-15.52
7.78
28.46
45.46
58.28
66.82
71.44
72.81
71.86
69.56
66.80
64.13
61.82
59.77
57.72
55.40
52.63
49.39
45.82
42.12
38.53
35.24
32.34
29.73
27.11
23.93
19.63
13.77
6.31
-2.35
-11.45
-20.18
-27.98
-34.72
-40.77
-46.82
-53.61
-61.70
-71.24
-81.75
-92.07
-100.45
-104.87
-103.56
-95.58
-81.15
-61.65
-39.19
-16.11
5.69
24.92
40.93
53.50
62.56
68.24
70.75
70.54
68.30
64.82
60.88
57.10
53.84
51.22
49.15
47.46
45.96
44.47
42.91
41.20
39.26
37.00
34.25
30.82
26.56
21.41
15.45
8.88
1.94
-5.13
-12.18
-19.14
-25.96
-32.64
-39.18
-45.72
-52.53
-60.04
-68.63
-78.31
-88.46
-97.68
-104.00
-105.35
-100.26
-88.29
-70.32
-48.22
-24.39
-1.13
19.74
37.12
50.47
59.72
65.06
66.84
65.60
62.06
57.14
51.81
46.95
43.19
40.75
39.46
38.84
38.31
37.41
35.95
34.10
32.16
30.43
28.91
27.29
25.03
21.56
16.59
10.18
2.70
-5.30
-13.31
-20.95
-28.01
-34.47
-40.50
-46.49
-52.95
-60.22
-68.16
-75.88
-81.78
-84.02
-81.09
-72.43
-58.63
-41.20
-22.07
-3.07
14.40
29.40
41.29
49.63
54.21
55.21
53.27
49.48
45.01
40.84
37.42
34.71
32.29
29.72
26.79
23.59
20.43
17.63
15.39
13.65
12.16
10.54
8.38
5.38
1.35
-3.67
-9.49
-15.72
-21.92
-27.73
-33.05
-38.13
-43.48
-49.75
-57.37
-66.31
-75.88
-84.77
-91.26
-93.66
-90.73
-82.05
-68.09
-50.12
-29.89
-9.24
10.17
27.06
40.64
50.48
56.55
59.15
58.83
56.36
52.61
48.42
44.46
41.11
38.50
36.48
34.79
33.14
31.34
29.33
27.19
24.99
22.69
20.07
16.77
12.40
6.81
0.17
-7.04
-14.24
-21.00
-27.25
-33.26
-39.56
-46.62
-54.74
-63.81
-73.28
-82.16
-89.04
-92.40
-90.83
-83.53
-70.55
-52.89
-32.28
-10.73
9.92
28.27
43.47
55.04
62.77
66.66
66.99
64.35
59.67
54.09
48.68
44.15
40.76
38.31
36.30
34.24
31.85
29.12
26.28
23.60
21.20
18.96
16.50
13.34
9.13
3.79
-2.43
-9.09
-15.76
-22.27
-28.75
-35.62
-43.35
-52.27
-62.31
-72.91
-82.94
-90.87
-95.02
-93.95
-86.88
-73.94
-56.18
-35.32
-13.35
7.87
26.83
42.45
54.08
61.46
64.78
64.63
61.97
57.90
53.44
49.39
46.11
43.67
41.88
40.39
38.85
37.02
34.84
32.41
29.91
27.41
24.77
21.64
17.58
12.32
5.92
-1.22
-8.57
-15.70
-22.55
-29.40
-36.73
-45.01
-54.41
-64.73
-75.28
-84.93
-92.21
-95.54
-93.53
-85.43
-71.39
-52.58
-30.94
-8.76
11.89
29.48
43.22
52.95
58.93
61.65
61.70
59.77
56.61
52.96
49.44
46.43
44.00
41.96
40.04
38.06
35.98
33.95
32.10
30.45
28.83
26.88
24.22
20.55
15.77
9.95
3.33
-3.77
-11.06
-18.37
-25.75
-33.50
-42.02
-51.55
-61.90
-72.13
-80.64
-85.48
-84.91
-78.03
-65.11
-47.56
-27.47
-7.03
11.95
28.27
41.28
50.67
56.41
58.70
58.03
55.22
51.23
46.96
43.04
39.70
36.89
34.46
32.30
30.42
28.86
27.60
26.43
25.07
23.14
20.37
16.57
11.74
5.98
-0.43
-7.16
-13.96
-20.67
-27.47
-34.77
-43.11
-52.84
-63.81
-75.09
-85.07
-91.78
-93.42
-88.85
-77.98
-61.75
-41.83
-20.26
1.03
20.44
36.78
49.30
57.58
61.62
61.84
59.05
54.36
48.86
43.46
38.68
34.65
31.23
28.23
25.56
23.29
21.51
20.25
19.26
18.05
15.99
12.55
7.58
1.28
-5.80
-13.06
-20.07
-26.73
-33.31
-40.28
-48.18
-57.36
-67.84
-79.15
-90.17
-99.27
-104.46
-104.03
-96.92
-83.25
-64.29
-42.16
-19.29
2.11
20.45
34.80
44.84
50.73
53.03
52.57
50.44
47.77
45.47
44.09
43.68
43.80
43.78
42.96
41.05
38.19
34.90
31.83
29.33
27.22
24.83
21.31
16.11
9.25
1.33
-6.81
-14.55
-21.81
-29.04
-36.95
-46.18
-56.98
-69.23
-82.38
-95.44
-107.03
-115.41
-118.78
-115.72
-105.74
-89.43
-68.42
-44.90
-21.03
1.50
21.67
39.00
53.35
64.72
73.24
79.23
83.22
85.82
87.61
88.89
89.69
89.79
88.97
87.17
84.50
81.22
77.53
73.55
69.27
64.56
59.24
53.12
46.07
38.04
29.20
19.91
10.66
1.88
-6.26
-13.97
-21.76
-30.23
-39.90
-50.93
-63.00
-75.27
-86.37
-94.53
-97.95
-95.21
-85.79
-70.27
-50.26
-27.99
-5.66
14.99
32.88
47.49
58.64
66.29
70.49
71.51
69.87
66.39
61.99
57.50
53.52
50.31
47.91
46.11
44.69
43.39
42.05
40.57
38.90
36.95
34.60
31.65
27.90
23.17
17.45
10.91
3.88
-3.22
-10.01
-16.29
-22.09
-27.73
-33.67
-40.35
-48.10
-57.00
-66.98
-77.72
-88.63
-98.70
-106.38
-109.76
-107.04
-97.15
-80.28
-58.06
-33.08
-8.22
14.19
32.76
47.07
57.33
63.98
67.47
68.26
66.93
64.19
60.87
57.66
55.00
53.00
51.51
50.28
49.05
47.64
45.98
44.05
41.85
39.39
36.63
33.52
29.99
26.03
21.70
17.08
12.24
7.13
1.61
-4.45
-11.05
-18.00
-24.92
-31.46
-37.44
-43.04
-48.78
-55.25
-62.91
-71.73
-81.06
-89.65
-95.80
-97.82
-94.36
-84.82
-69.59
-49.95
-27.91
-5.68
14.72
31.86
45.06
54.31
60.04
62.80
63.10
61.33
57.89
53.34
48.36
43.74
40.06
37.56
36.11
35.32
34.77
34.13
33.23
31.99
30.37
28.34
25.85
22.90
19.48
15.56
11.04
5.85
0.01
-6.29
-12.72
-18.96
-24.75
-30.05
-34.99
-39.87
-45.05
-50.87
-57.56
-65.04
-72.72
-79.48
-83.73
-83.89
-78.77
-68.08
-52.51
-33.62
-13.36
6.33
23.90
38.29
48.88
55.44
58.10
57.28
53.78
48.62
42.88
37.50
33.05
29.71
27.33
25.60
24.26
23.12
22.08
21.07
19.93
18.53
16.73
14.46
11.71
8.45
4.67
0.35
-4.42
-9.44
-14.46
-19.25
-23.85
-28.48
-33.54
-39.44
-46.39
-54.35
-62.86
-71.13
-77.95
-81.94
-81.78
-76.61
-66.33
-51.71
-34.23
-15.67
2.29
18.34
31.57
41.46
47.76
50.54
50.17
47.33
42.92
37.85
32.88
28.55
25.10
22.57
20.77
19.42
18.21
16.93
15.53
14.12
12.78
11.44
9.73
7.12
3.20
-2.12
-8.50
-15.30
-21.88
-27.87
-33.36
-38.68
-44.30
-50.63
-57.91
-66.14
-74.97
-83.58
-90.61
-94.40
-93.40
-86.63
-74.10
-56.87
-36.73
-15.73
4.30
22.01
36.55
47.48
54.60
57.94
57.83
54.99
50.48
45.52
41.14
37.92
35.83
34.36
32.84
30.85
28.36
25.71
23.32
21.40
19.82
18.15
15.87
12.61
8.23
2.81
-3.39
-10.03
-16.80
-23.44
-29.90
-36.40
-43.34
-51.26
-60.46
-70.81
-81.49
-91.10
-97.93
-100.29
-97.01
-87.72
-72.94
-53.96
-32.60
-10.77
9.81
27.90
42.77
54.15
62.06
66.68
68.22
67.08
63.75
58.94
53.50
48.29
43.97
40.89
39.03
38.06
37.53
36.98
36.12
34.78
32.91
30.44
27.20
22.95
17.47
10.78
3.21
-4.61
-12.02
-18.63
-24.52
-30.28
-36.74
-44.62
-54.19
-65.06
-76.26
-86.39
-93.86
-97.14
-95.01
-86.85
-72.78
-53.85
-31.83
-8.89
12.88
31.87
47.12
58.28
65.43
68.93
69.28
67.23
63.63
59.42
55.37
51.97
49.32
47.22
45.33
43.45
41.55
39.78
38.31
37.15
36.08
34.63
32.20
28.21
22.34
14.65
5.62
-3.94
-13.13
-21.22
-27.95
-33.66
-39.18
-45.57
-53.69
-63.74
-75.02
-85.88
-94.06
-97.35
-94.20
-84.21
-68.25
-48.15
-26.20
-4.57
15.03
31.48
44.15
52.80
57.50
58.64
56.91
53.24
48.59
43.80
39.43
35.77
32.89
30.77
29.31
28.36
27.73
27.16
26.41
25.26
23.56
21.17
17.93
13.69
8.38
2.11
-4.79
-11.85
-18.60
-24.85
-30.79
-37.00
-44.24
-53.10
-63.53
-74.60
-84.52
-90.98
-91.92
-86.13
-73.66
-55.84
-34.77
-12.76
8.21
26.74
41.99
53.53
61.20
65.12
65.71
63.67
59.92
55.46
51.09
47.29
44.19
41.56
39.07
36.43
33.60
30.78
28.31
26.42
24.99
23.54
21.35
17.77
12.52
5.81
-1.76
-9.45
-16.72
-23.40
-29.73
-36.23
-43.55
-52.25
-62.66
-74.58
-87.15
-98.77
-107.32
-110.60
-107.02
-96.12
-78.67
-56.51
-31.99
-7.37
15.49
35.28
51.18
62.71
69.80
72.76
72.37
69.76
66.10
62.34
59.02
56.22
53.72
51.23
48.59
45.81
42.99
40.26
37.66
35.15
32.63
29.94
26.87
23.13
18.40
12.48
5.39
-2.50
-10.61
-18.39
-25.58
-32.35
-39.25
-46.95
-55.95
-66.31
-77.45
-88.19
-96.86
-101.53
-100.50
-92.70
-78.11
-57.87
-34.16
-9.55
13.58
33.58
49.75
62.06
70.83
76.36
78.84
78.51
75.87
71.72
67.06
62.80
59.47
57.16
55.53
54.13
52.52
50.50
48.02
45.22
42.23
39.12
35.81
32.08
27.60
22.10
15.49
7.90
-0.31
-8.75
-17.06
-25.02
-32.57
-39.77
-46.81
-54.04
-61.89
-70.68
-80.34
-90.08
-98.38
-103.22
-102.62
-95.28
-81.02
-60.96
-37.14
-12.09
11.86
32.89
49.88
62.33
70.22
73.83
73.73
70.80
66.14
60.93
56.22
52.66
50.41
49.18
48.50
47.94
47.25
46.38
45.31
44.00
42.32
40.13
37.31
33.80
29.49
24.26
17.97
10.64
2.60
-5.60
-13.31
-20.06
-25.84
-31.03
-36.23
-41.98
-48.58
-56.09
-64.31
-72.79
-80.78
-87.05
-90.05
-88.27
-80.77
-67.66
-50.16
-30.28
-10.13
8.61
24.93
38.41
48.86
56.12
60.01
60.62
58.40
54.26
49.38
44.87
41.51
39.59
38.96
39.16
39.62
39.82
39.41
38.23
36.27
33.67
30.56
27.03
23.10
18.76
13.99
8.86
3.52
-1.85
-7.14
-12.32
-17.51
-22.90
-28.63
-34.81
-41.50
-48.71
-56.39
-64.22
-71.49
-77.01
-79.31
-77.02
-69.35
-56.51
-39.71
-20.84
-2.00
15.03
29.09
39.61
46.47
49.79
49.93
47.41
43.07
37.90
32.85
28.60
25.37
22.92
20.80
18.59
16.20
13.85
11.92
10.63
9.87
9.15
7.80
5.24
1.25
-4.01
-10.04
-16.31
-22.40
-28.16
-33.68
-39.16
-44.90
-51.16
-58.25
-66.30
-75.12
-84.00
-91.59
-96.16
-96.01
-90.06
-78.22
-61.53
-41.83
-21.22
-1.57
15.84
30.26
41.36
49.02
53.26
54.32
52.78
49.53
45.56
41.77
38.65
36.29
34.40
32.59
30.63
28.52
26.49
24.78
23.50
22.41
21.04
18.79
15.21
10.19
3.98
-2.82
-9.61
-15.91
-21.59
-26.89
-32.31
-38.41
-45.64
-54.22
-63.85
-73.76
-82.63
-88.82
-90.72
-87.17
-77.79
-63.12
-44.52
-23.83
-2.97
16.34
32.86
45.86
55.08
60.59
62.75
62.08
59.22
54.87
49.77
44.63
40.03
36.33
33.59
31.62
30.13
28.85
27.58
26.25
24.76
22.92
20.47
17.12
12.67
7.14
0.80
-5.91
-12.48
-18.56
-24.07
-29.28
-34.72
-41.07
-48.84
-58.20
-68.73
-79.43
-88.73
-94.85
-96.15
-91.57
-80.94
-65.10
-45.65
-24.56
-3.65
15.62
32.28
45.71
55.50
61.44
63.65
62.63
59.26
54.66
49.85
45.60
42.33
40.12
38.81
38.09
37.57
36.87
35.72
34.06
32.01
29.72
27.26
24.45
20.97
16.49
10.89
4.36
-2.66
-9.65
-16.33
-22.72
-29.11
-35.98
-43.70
-52.45
-62.08
-72.05
-81.44
-88.95
-93.08
-92.40
-85.96
-73.64
-56.33
-35.77
-14.12
6.60
24.92
40.03
51.65
59.78
64.48
65.92
64.50
60.97
56.35
51.70
47.77
44.82
42.66
40.89
39.16
37.35
35.59
34.02
32.70
31.45
29.96
27.86
24.86
20.79
15.66
9.62
2.95
-3.96
-10.70
-16.96
-22.65
-27.90
-33.12
-38.85
-45.56
-53.37
-61.82
-69.77
-75.57
-77.49
-74.22
-65.36
-51.54
-34.20
-15.13
3.92
21.50
36.46
47.90
55.18
58.11
57.10
53.18
47.77
42.22
37.45
33.78
31.03
28.81
26.80
24.88
23.07
21.42
19.92
18.49
17.04
15.44
13.53
11.07
7.75
3.36
-2.14
-8.46
-15.07
-21.36
-26.95
-31.86
-36.56
-41.78
-48.13
-55.71
-63.87
-71.21
-75.95
-76.37
-71.44
-61.10
-46.25
-28.47
-9.59
8.68
24.98
38.33
48.11
53.95
55.88
54.34
50.23
44.75
39.16
34.41
30.93
28.58
26.85
25.20
23.36
21.34
19.39
17.67
16.07
14.25
11.72
8.14
3.37
-2.42
-8.95
-15.90
-22.99
-30.02
-36.92
-43.77
-50.86
-58.61
-67.29
-76.69
-85.85
-93.15
-96.68
-94.89
-87.08
-73.66
-55.95
-35.74
-14.82
5.32
23.52
38.88
50.63
58.29
61.72
61.38
58.21
53.46
48.26
43.40
39.17
35.55
32.47
29.86
27.80
26.33
25.33
24.42
23.09
20.81
17.24
12.33
6.33
-0.34
-7.22
-13.93
-20.25
-26.25
-32.25
-38.78
-46.40
-55.50
-66.01
-77.15
-87.43
-94.87
-97.45
-93.77
-83.48
-67.47
-47.54
-25.96
-4.77
14.50
30.94
44.10
53.77
59.90
62.66
62.53
60.33
57.05
53.60
50.59
48.21
46.30
44.55
42.75
40.86
39.03
37.41
36.03
34.63
32.75
29.83
25.47
19.60
12.43
4.47
-3.71
-11.59
-18.89
-25.62
-32.19
-39.28
-47.58
-57.39
-68.23
-78.69
-86.65
-89.82
-86.55
-76.33
-59.98
-39.36
-16.81
5.44
25.62
42.55
55.57
64.43
69.22
70.38
68.67
65.08
60.69
56.48
53.04
50.54
48.69
47.01
45.08
42.73
40.17
37.76
35.82
34.38
33.10
31.35
28.49
24.09
18.13
10.99
3.27
-4.43
-11.75
-18.68
-25.52
-32.80
-41.04
-50.54
-61.15
-72.07
-81.87
-88.65
-90.48
-85.93
-74.62
-57.40
-36.21
-13.59
8.04
26.78
41.57
52.10
58.51
61.26
61.00
58.46
54.52
50.05
45.77
42.15
39.31
37.10
35.23
33.39
31.40
29.20
26.85
24.41
21.94
19.38
16.57
13.32
9.42
4.79
-0.50
-6.20
-12.06
-17.91
-23.85
-30.20
-37.44
-45.93
-55.51
-65.32
-73.78
-78.99
-79.18
-73.38
-61.66
-45.22
-25.97
-6.05
12.69
28.92
41.88
51.23
56.89
58.93
57.70
53.76
48.01
41.51
35.30
30.17
26.51
24.25
22.97
22.20
21.53
20.72
19.64
18.11
15.91
12.73
8.38
2.91
-3.34
-9.84
-16.13
-22.00
-27.61
-33.40
-39.92
-47.58
-56.47
-66.19
-75.84
-84.07
-89.35
-90.24
-85.82
-75.95
-61.31
-43.27
-23.57
-3.94
14.12
29.43
41.23
49.07
52.91
53.09
50.42
45.95
40.76
35.73
31.35
27.69
24.53
21.59
18.66
15.78
13.12
10.90
9.14
7.58
5.63
2.64
-1.91
-8.20
-16.00
-24.82
-34.12
-43.53
-52.95
-62.55
-72.61
-83.37
-94.76
-106.29
-116.82
-124.70
-128.00
-125.04
-114.90
-97.73
-74.82
-48.13
-19.88
7.86
33.38
55.41
72.99
85.53
92.94
95.65
94.56
90.93
86.08
81.10
76.68
73.07
70.12
67.50
64.82
61.83
58.48
54.88
51.12
47.16
42.76
37.48
31.05
23.46
15.07
6.50
-1.62
-8.91
-15.42
-21.55
-27.96
-35.36
-44.18
-54.47
-65.60
-76.34
-84.87
-89.25
-87.86
-79.94
-65.87
-47.08
-25.68
-3.90
16.40
33.94
48.11
58.71
65.84
69.72
70.65
69.03
65.45
60.64
55.43
50.57
46.54
43.44
41.08
39.10
37.27
35.50
33.82
32.20
30.40
27.99
24.49
19.67
13.68
7.04
0.37
-5.83
-11.43
-16.68
-22.09
-28.22
-35.53
-44.21
-54.14
-64.83
-75.37
-84.40
-90.32
-91.50
-86.75
-75.71
-59.07
-38.50
-16.25
5.40
24.63
40.38
52.27
60.36
64.93
66.34
65.05
61.71
57.20
52.48
48.38
45.37
43.46
42.28
41.29
40.02
38.21
35.88
33.23
30.44
27.57
24.42
20.64
15.87
10.00
3.26
-3.81
-10.63
-16.82
-22.38
-27.61
-32.97
-38.93
-45.75
-53.54
-62.14
-70.98
-79.01
-84.71
-86.36
-82.57
-72.76
-57.45
-38.20
-17.20
3.37
21.74
36.79
48.05
55.43
59.13
59.52
57.19
52.90
47.58
42.16
37.41
33.78
31.34
29.87
28.98
28.33
27.68
26.94
26.11
25.08
23.66
21.51
18.31
13.91
8.41
2.26
-3.97
-9.78
-15.01
-19.90
-25.07
-31.16
-38.60
-47.35
-56.80
-65.87
-73.21
-77.38
-77.17
-71.83
-61.28
-46.20
-28.00
-8.51
10.31
26.79
39.79
48.72
53.61
54.84
53.12
49.28
44.23
38.85
33.87
29.73
26.54
24.09
22.05
20.11
18.11
16.08
14.07
12.09
9.96
7.34
3.91
-0.49
-5.77
-11.62
-17.65
-23.55
-29.22
-34.75
-40.47
-46.83
-54.29
-63.07
-72.83
-82.47
-90.23
-94.00
-92.06
-83.63
-69.20
-50.38
-29.36
-8.30
11.09
27.68
40.85
50.27
55.90
58.00
57.18
54.27
50.23
45.87
41.80
38.32
35.49
33.18
31.21
29.38
27.58
25.80
24.04
22.28
20.38
17.99
14.72
10.24
4.51
-2.19
-9.28
-16.13
-22.37
-27.99
-33.48
-39.59
-47.06
-56.30
-66.98
-78.00
-87.56
-93.56
-94.17
-88.31
-76.08
-58.66
-38.04
-16.44
4.20
22.48
37.56
48.98
56.54
60.26
60.53
58.14
54.18
49.80
45.80
42.55
39.95
37.69
35.51
33.38
31.46
29.88
28.64
27.50
26.08
23.98
20.93
16.77
11.52
5.32
-1.53
-8.61
-15.44
-21.65
-27.18
-32.37
-37.94
-44.65
-52.96
-62.69
-72.84
-81.75
-87.47
-88.26
-83.06
-71.82
-55.47
-35.73
-14.67
5.78
24.08
39.27
50.84
58.61
62.69
63.40
61.38
57.61
53.26
49.46
47.01
46.18
46.67
47.76
48.65
48.71
47.69
45.77
43.29
40.59
37.80
34.71
30.90
25.95
19.67
12.21
4.08
-4.08
-11.67
-18.41
-24.41
-30.12
-36.16
-43.08
-51.19
-60.31
-69.78
-78.40
-84.62
-86.85
-83.83
-75.04
-60.94
-42.96
-23.11
-3.50
14.19
28.91
40.21
48.05
52.56
53.98
52.71
49.41
45.01
40.53
36.82
34.29
32.88
32.17
31.66
30.93
29.83
28.32
26.42
24.09
21.24
17.83
13.86
9.42
4.62
-0.48
-5.79
-11.24
-16.69
-22.03
-27.23
-32.50
-38.25
-44.99
-52.97
-61.93
-70.91
-78.36
-82.52
-81.91
-75.76
-64.22
-48.33
-29.67
-10.14
8.52
24.87
37.91
47.14
52.52
54.39
53.40
50.39
46.19
41.55
37.04
33.02
29.66
26.98
24.87
23.17
21.69
20.30
18.93
17.52
15.96
14.03
11.40
7.73
2.85
-3.14
-9.87
-16.81
-23.52
-29.79
-35.72
-41.74
-48.41
-56.18
-65.19
-74.99
-84.45
-91.85
-95.27
-93.16
-84.85
-70.83
-52.55
-32.01
-11.21
8.29
25.39
39.39
49.84
56.51
59.45
59.13
56.42
52.38
48.09
44.32
41.46
39.53
38.25
37.23
36.12
34.69
32.88
30.79
28.56
26.26
23.77
20.83
17.07
12.27
6.47
-0.06
-6.88
-13.57
-19.94
-26.03
-32.11
-38.57
-45.83
-54.17
-63.65
-73.81
-83.60
-91.38
-95.23
-93.48
-85.22
-70.73
-51.44
-29.54
-7.35
13.21
30.91
45.14
55.70
62.54
65.72
65.51
62.51
57.70
52.27
47.30
43.47
40.93
39.44
38.58
37.98
37.41
36.79
35.99
34.85
33.19
30.85
27.79
24.02
19.51
14.22
8.08
1.12
-6.37
-13.93
-21.08
-27.56
-33.52
-39.52
-46.32
-54.47
-63.97
-74.02
-83.12
-89.38
-91.02
-86.89
-76.76
-61.38
-42.29
-21.35
-0.43
18.94
35.58
48.73
58.00
63.32
65.02
63.76
60.44
56.02
51.36
47.06
43.50
40.77
38.80
37.38
36.19
34.93
33.37
31.48
29.40
27.29
25.24
23.04
20.26
16.43
11.30
5.03
-1.84
-8.60
-14.69
-19.93
-24.58
-29.24
-34.58
-41.15
-49.07
-57.98
-66.90
-74.36
-78.67
-78.32
-72.45
-61.14
-45.43
-27.11
-8.13
9.77
25.37
38.01
47.37
53.30
55.77
54.92
51.30
45.88
39.91
34.58
30.69
28.43
27.45
27.12
26.82
26.14
24.92
23.15
20.90
18.24
15.28
12.08
8.63
4.77
0.26
-5.11
-11.31
-18.04
-24.81
-31.20
-37.11
-42.87
-49.15
-56.61
-65.52
-75.40
-84.93
-92.17
-95.09
-92.14
-82.77
-67.60
-48.24
-26.80
-5.36
14.44
31.48
45.08
54.81
60.43
61.99
60.06
55.70
50.33
45.38
41.79
39.79
38.92
38.30
37.10
34.96
32.01
28.82
26.07
24.13
22.95
22.03
20.64
18.05
13.82
7.87
0.50
-7.75
-16.27
-24.52
-32.16
-39.15
-45.73
-52.38
-59.65
-67.86
-76.83
-85.66
-92.72
-95.98
-93.62
-84.59
-69.09
-48.59
-25.45
-2.31
18.57
35.72
48.53
57.07
61.81
63.40
62.58
60.15
57.01
54.01
51.71
50.22
49.20
48.04
46.22
43.60
40.51
37.55
35.21
33.61
32.40
30.95
28.64
25.12
20.35
14.55
8.03
1.07
-6.08
-13.15
-19.98
-26.49
-32.89
-39.64
-47.39
-56.53
-66.94
-77.62
-86.86
-92.57
-92.97
-87.14
-75.26
-58.58
-38.94
-18.30
1.68
19.78
35.17
47.35
56.06
61.27
63.19
62.34
59.41
55.22
50.63
46.36
42.90
40.45
38.81
37.58
36.29
34.62
32.54
30.24
27.99
25.88
23.74
21.18
17.79
13.38
8.03
2.10
-3.99
-9.97
-15.82
-21.75
-28.09
-35.10
-42.98
-51.65
-60.78
-69.64
-77.12
-81.82
-82.35
-77.73
-67.67
-52.79
-34.46
-14.52
5.16
23.01
37.92
49.27
56.86
60.80
61.48
59.54
55.84
51.33
46.89
43.16
40.39
38.48
37.10
35.89
34.62
33.23
31.76
30.20
28.48
26.35
23.63
20.16
16.03
11.41
6.58
1.76
-2.98
-7.74
-12.71
-18.18
-24.37
-31.45
-39.44
-48.09
-56.78
-64.51
-69.95
-71.77
-68.92
-61.07
-48.69
-32.93
-15.41
2.22
18.49
32.27
42.75
49.47
52.39
51.91
48.86
44.33
39.39
34.81
30.96
27.82
25.16
22.79
20.67
18.90
17.60
16.77
16.16
15.39
14.00
11.67
8.30
4.06
-0.73
-5.68
-10.52
-15.15
-19.68
-24.43
-29.75
-35.94
-43.08
-50.85
-58.49
-64.78
-68.32
-67.84
-62.60
-52.60
-38.73
-22.49
-5.68
9.97
23.12
32.95
39.15
41.87
41.57
38.95
34.86
30.15
25.52
21.47
18.16
15.49
13.21
11.10
9.02
7.01
5.15
3.47
1.87
0.06
-2.31
-5.54
-9.74
-14.81
-20.50
-26.52
-32.64
-38.80
-45.14
-51.91
-59.34
-67.39
-75.52
-82.60
-87.09
-87.43
-82.53
-72.11
-56.92
-38.48
-18.77
0.27
17.04
30.48
40.10
45.89
48.26
47.88
45.55
42.06
38.10
34.18
30.66
27.73
25.43
23.73
22.44
21.32
20.04
18.31
15.85
12.50
8.25
3.25
-2.27
-7.97
-13.63
-19.16
-24.75
-30.81
-37.87
-46.37
-56.35
-67.27
-77.88
-86.43
-91.03
-90.09
-82.88
-69.64
-51.69
-31.01
-9.80
9.97
26.88
40.16
49.60
55.37
57.91
57.81
55.80
52.69
49.28
46.17
43.68
41.75
40.09
38.33
36.25
33.87
31.36
28.87
26.37
23.57
20.07
15.56
9.98
3.60
-3.18
-10.04
-16.91
-23.99
-31.66
-40.24
-49.82
-60.12
-70.38
-79.39
-85.59
-87.44
-83.77
-74.16
-59.23
-40.44
-19.80
0.62
19.16
34.71
46.72
55.08
60.01
61.99
61.71
59.92
57.35
54.49
51.62
48.83
46.16
43.70
41.55
39.76
38.27
36.86
35.22
33.06
30.16
26.38
21.67
16.07
9.73
2.89
-4.13
-11.06
-17.81
-24.54
-31.69
-39.73
-48.89
-58.80
-68.38
-75.91
-79.49
-77.57
-69.45
-55.58
-37.40
-16.89
3.88
23.16
39.62
52.39
60.99
65.37
65.89
63.37
58.95
53.81
48.94
44.90
41.81
39.42
37.38
35.37
33.23
31.02
28.89
26.96
25.17
23.28
20.88
17.62
13.34
8.16
2.47
-3.35
-9.00
-14.51
-20.12
-26.23
-33.21
-41.25
-50.19
-59.43
-67.98
-74.43
-77.31
-75.36
-67.94
-55.29
-38.55
-19.53
-0.27
17.40
32.16
43.29
50.58
54.17
54.46
52.01
47.59
42.10
36.44
31.36
27.28
24.27
22.11
20.47
19.08
17.75
16.38
14.86
13.01
10.59
7.40
3.35
-1.51
-7.02
-12.95
-19.04
-25.16
-31.24
-37.37
-43.76
-50.71
-58.37
-66.61
-74.77
-81.66
-85.79
-85.68
-80.32
-69.49
-53.89
-34.94
-14.47
5.62
23.73
38.68
49.79
56.84
59.95
59.58
56.49
51.61
45.96
40.51
35.94
32.60
30.41
29.05
28.05
27.03
25.72
23.98
21.69
18.72
14.93
10.24
4.72
-1.43
-7.88
-14.29
-20.41
-26.14
-31.61
-37.11
-43.15
-50.30
-59.00
-69.32
-80.65
-91.65
-100.33
-104.58
-102.67
-93.88
-78.69
-58.69
-36.06
-13.01
8.67
27.81
43.72
56.00
64.43
68.93
69.82
67.81
63.99
59.58
55.61
52.62
50.58
49.05
47.47
45.44
42.92
40.19
37.64
35.48
33.62
31.56
28.62
24.20
18.02
10.28
1.58
-7.22
-15.35
-22.34
-28.26
-33.68
-39.55
-46.81
-56.05
-67.12
-78.99
-89.86
-97.52
-99.94
-95.76
-84.70
-67.62
-46.30
-23.00
0.06
21.04
38.69
52.38
61.94
67.60
69.90
69.58
67.55
64.70
61.69
58.87
56.25
53.58
50.60
47.26
43.73
40.41
37.67
35.68
34.28
33.01
31.25
28.44
24.26
18.68
12.03
4.76
-2.63
-9.78
-16.55
-23.00
-29.40
-36.05
-43.33
-51.53
-60.70
-70.43
-79.73
-86.96
-90.20
-87.77
-78.84
-63.84
-44.41
-22.88
-1.65
17.50
33.63
46.47
56.15
62.78
66.39
67.06
65.16
61.42
56.88
52.54
49.05
46.54
44.70
43.00
41.05
38.77
36.36
34.12
32.25
30.60
28.78
26.22
22.49
17.42
11.20
4.32
-2.68
-9.35
-15.50
-21.29
-27.13
-33.51
-40.82
-49.17
-58.31
-67.55
-75.76
-81.52
-83.38
-80.19
-71.42
-57.42
-39.43
-19.31
0.82
19.07
34.06
45.11
52.15
55.54
55.90
53.87
50.14
45.39
40.28
35.43
31.36
28.31
26.26
24.94
23.98
23.10
22.15
21.08
19.82
18.18
15.83
12.44
7.89
2.37
-3.69
-9.79
-15.58
-21.03
-26.38
-32.03
-38.35
-45.53
-53.41
-61.42
-68.50
-73.25
-74.18
-70.17
-60.86
-46.83
-29.56
-10.99
6.95
22.72
35.39
44.53
50.12
52.37
51.72
48.73
44.12
38.66
33.04
27.85
23.44
20.00
17.52
15.88
14.85
14.11
13.32
12.08
10.01
6.87
2.56
-2.78
-8.83
-15.16
-21.37
-27.29
-33.05
-39.09
-46.07
-54.46
-64.28
-74.76
-84.41
-91.22
-93.25
-89.22
-78.90
-63.21
-43.88
-23.01
-2.56
15.94
31.47
43.49
51.76
56.36
57.64
56.22
52.88
48.47
43.79
39.40
35.70
32.83
30.75
29.28
28.13
26.91
25.27
22.97
19.88
16.05
11.56
6.49
0.88
-5.24
-11.82
-18.77
-26.02
-33.64
-41.82
-50.79
-60.52
-70.41
-79.22
-85.15
-86.39
-81.67
-70.75
-54.52
-34.79
-13.76
6.47
24.31
38.75
49.39
56.28
59.76
60.36
58.76
55.67
51.74
47.53
43.42
39.59
36.09
32.90
30.03
27.48
25.18
22.95
20.44
17.29
13.25
8.34
2.80
-3.02
-8.90
-14.86
-21.13
-28.01
-35.78
-44.53
-54.22
-64.49
-74.55
-83.03
-88.12
-87.88
-81.01
-67.38
-48.29
-26.10
-3.54
17.11
34.44
47.95
57.69
63.87
66.69
66.47
63.75
59.37
54.28
49.29
44.88
41.12
37.91
35.12
32.74
30.82
29.33
28.04
26.50
24.21
20.77
16.05
10.25
3.75
-2.96
-9.50
-15.70
-21.68
-27.85
-34.77
-42.95
-52.48
-62.73
-72.26
-79.02
-80.89
-76.41
-65.28
-48.54
-28.23
-6.83
13.41
30.88
44.65
54.38
60.10
62.07
60.81
57.06
51.80
46.04
40.67
36.21
32.82
30.35
28.54
27.13
25.97
24.94
23.85
22.45
20.39
17.37
13.31
8.33
2.72
-3.20
-9.20
-15.19
-21.25
-27.54
-34.31
-41.82
-50.21
-59.31
-68.40
-76.17
-80.90
-80.86
-74.85
-62.67
-45.25
-24.49
-2.79
17.54
34.69
47.58
55.88
59.84
60.11
57.56
53.13
47.78
42.36
37.52
33.66
30.83
28.83
27.28
25.81
24.15
22.11
19.67
16.84
13.62
9.99
5.82
0.99
-4.54
-10.69
-17.18
-23.69
-30.01
-36.21
-42.72
-50.11
-58.76
-68.46
-78.21
-86.35
-90.92
-90.23
-83.36
-70.43
-52.61
-31.77
-10.06
10.57
28.62
43.16
53.77
60.35
63.16
62.68
59.69
55.13
49.99
45.04
40.71
37.08
34.02
31.40
29.19
27.46
26.23
25.28
24.19
22.39
19.39
14.91
9.07
2.26
-4.96
-12.11
-18.89
-25.31
-31.65
-38.41
-46.10
-55.09
-65.34
-76.20
-86.34
-93.92
-96.94
-93.82
-83.85
-67.47
-46.24
-22.50
1.20
22.59
40.09
52.96
61.21
65.43
66.50
65.35
62.82
59.59
56.13
52.74
49.58
46.65
43.87
41.16
38.49
35.88
33.38
31.02
28.67
26.04
22.77
18.51
13.10
6.68
-0.40
-7.62
-14.56
-21.04
-27.23
-33.54
-40.53
-48.67
-58.11
-68.47
-78.75
-87.43
-92.73
-92.98
-87.08
-74.86
-57.21
-35.88
-13.10
8.95
28.51
44.49
56.43
64.35
68.55
69.51
67.85
64.35
59.92
55.47
51.66
48.77
46.59
44.60
42.27
39.39
36.11
32.91
30.24
28.22
26.56
24.60
21.67
17.35
11.60
4.78
-2.53
-9.82
-16.75
-23.26
-29.49
-35.78
-42.56
-50.18
-58.84
-68.34
-77.98
-86.51
-92.29
-93.58
-89.09
-78.34
-61.95
-41.55
-19.35
2.32
21.56
37.12
48.50
55.80
59.52
60.39
59.20
56.73
53.63
50.33
47.09
44.01
41.14
38.44
35.93
33.57
31.42
29.56
28.14
27.23
26.65
25.89
24.22
20.89
15.53
8.36
0.14
-8.10
-15.51
-21.76
-27.05
-31.99
-37.26
-43.41
-50.62
-58.67
-66.91
-74.27
-79.32
-80.57
-76.79
-67.42
-52.90
-34.56
-14.38
5.52
23.34
37.88
48.55
55.25
58.24
57.99
55.19
50.70
45.46
40.36
36.10
33.01
31.07
29.94
29.18
28.41
27.42
26.17
24.67
22.92
20.78
18.03
14.43
9.90
4.57
-1.20
-6.96
-12.34
-17.26
-21.95
-26.89
-32.62
-39.50
-47.50
-56.15
-64.49
-71.23
-74.99
-74.56
-69.19
-58.84
-44.26
-26.87
-8.46
9.19
24.65
37.00
45.81
51.05
52.95
52.01
48.93
44.58
39.79
35.21
31.16
27.67
24.57
21.73
19.13
16.86
15.00
13.56
12.39
11.18
9.58
7.23
3.93
-0.32
-5.31
-10.67
-16.04
-21.23
-26.33
-31.66
-37.63
-44.60
-52.66
-61.58
-70.68
-78.85
-84.74
-86.89
-84.22
-76.25
-63.39
-46.78
-28.11
-9.14
8.57
23.93
36.21
45.09
50.51
52.72
52.20
49.68
46.04
42.07
38.34
35.08
32.25
29.66
27.22
24.98
23.12
21.75
20.79
19.87
18.47
16.08
12.46
7.69
2.13
-3.77
-9.64
-15.31
-20.82
-26.39
-32.34
-38.99
-46.62
-55.29
-64.77
-74.33
-82.78
-88.61
-90.29
-86.72
-77.57
-63.41
-45.62
-25.98
-6.33
11.79
27.33
39.70
48.66
54.26
56.74
56.57
54.37
50.91
46.93
43.08
39.76
37.10
35.02
33.31
31.77
30.27
28.78
27.29
25.76
23.99
21.65
18.32
13.71
7.79
0.85
-6.54
-13.75
-20.37
-26.29
-31.77
-37.31
-43.49
-50.71
-59.09
-68.25
-77.30
-84.84
-89.29
-89.18
-83.60
-72.48
-56.62
-37.56
-17.12
2.90
21.05
36.31
48.05
55.99
60.14
60.84
58.73
54.76
50.04
45.60
42.13
39.78
38.22
36.84
35.11
32.88
30.41
28.14
26.39
25.05
23.68
21.64
18.45
14.00
8.52
2.46
-3.79
-10.02
-16.20
-22.45
-28.96
-35.92
-43.53
-51.90
-60.92
-70.09
-78.38
-84.32
-86.30
-83.03
-73.98
-59.60
-41.27
-20.93
-0.63
17.92
33.50
45.49
53.74
58.42
59.93
58.88
55.99
52.07
47.93
44.15
41.07
38.69
36.78
35.08
33.45
31.92
30.63
29.62
28.69
27.31
24.87
20.93
15.50
9.06
2.34
-3.98
-9.59
-14.59
-19.42
-24.60
-30.61
-37.73
-45.99
-55.08
-64.19
-72.06
-77.07
-77.66
-72.81
-62.44
-47.42
-29.36
-10.17
8.37
24.85
38.25
47.94
53.65
55.56
54.27
50.76
46.12
41.33
37.02
33.42
30.46
27.96
25.72
23.70
21.92
20.44
19.22
18.07
16.65
14.54
11.38
7.07
1.79
-4.06
-10.02
-15.77
-21.28
-26.83
-32.88
-39.88
-48.04
-57.12
-66.34
-74.34
-79.49
-80.25
-75.58
-65.32
-50.21
-31.76
-11.86
7.58
24.91
38.92
48.87
54.57
56.37
55.09
51.79
47.51
42.97
38.55
34.33
30.38
26.85
23.92
21.76
20.30
19.24
18.13
16.55
14.24
11.14
7.29
2.76
-2.36
-7.99
-14.03
-20.33
-26.81
-33.52
-40.65
-48.48
-57.17
-66.56
-75.98
-84.14
-89.35
-89.91
-84.58
-73.06
-56.21
-35.79
-14.06
6.81
25.21
40.20
51.39
58.76
62.46
62.83
60.46
56.20
51.12
46.20
42.13
39.13
36.97
35.21
33.40
31.31
28.91
26.30
23.55
20.62
17.31
13.44
8.86
3.59
-2.21
-8.35
-14.69
-21.27
-28.27
-35.96
-44.60
-54.27
-64.63
-74.90
-83.70
-89.32
-90.08
-84.81
-73.26
-56.30
-35.68
-13.58
7.84
26.92
42.59
54.29
61.88
65.54
65.75
63.28
59.12
54.30
49.63
45.60
42.31
39.55
37.08
34.71
32.43
30.26
28.23
26.18
23.81
20.74
16.72
11.71
5.94
-0.27
-6.59
-12.86
-19.13
-25.62
-32.65
-40.58
-49.60
-59.62
-70.01
-79.52
-86.39
-88.73
-85.04
-74.82
-58.76
-38.65
-16.84
4.38
23.31
38.94
50.88
59.10
63.75
65.15
63.84
60.59
56.35
52.01
48.18
45.10
42.64
40.51
38.42
36.24
34.05
31.91
29.84
27.69
25.14
21.80
17.36
11.72
5.10
-2.06
-9.22
-15.97
-22.15
-28.01
-34.11
-41.17
-49.71
-59.76
-70.62
-80.81
-88.36
-91.30
-88.19
-78.58
-63.10
-43.31
-21.31
0.70
20.83
37.67
50.38
58.72
62.96
63.75
62.01
58.71
54.72
50.68
46.97
43.76
41.05
38.70
36.60
34.63
32.77
31.07
29.55
28.10
26.40
23.98
20.35
15.25
8.83
1.56
-5.84
-12.77
-18.95
-24.58
-30.20
-36.48
-43.97
-52.79
-62.47
-71.91
-79.50
-83.46
-82.26
-75.08
-62.14
-44.61
-24.42
-3.68
15.70
32.25
45.06
53.67
58.07
58.59
56.00
51.35
45.81
40.46
35.99
32.70
30.47
28.94
27.72
26.48
25.06
23.39
21.47
19.30
16.75
13.64
9.77
5.03
-0.47
-6.45
-12.56
-18.53
-24.29
-30.00
-36.05
-42.81
-50.48
-58.85
-67.16
-74.13
-78.19
-77.79
-71.97
-60.66
-44.78
-25.98
-6.26
12.51
28.86
41.82
50.84
55.73
56.68
54.23
49.35
43.23
37.07
31.77
27.79
25.21
23.83
23.35
23.48
23.90
24.25
24.10
23.08
20.92
17.57
13.12
7.76
1.74
-4.68
-11.18
-17.57
-23.81
-30.17
-37.19
-45.43
-55.15
-65.87
-76.33
-84.66
-88.85
-87.31
-79.34
-65.32
-46.58
-25.14
-3.21
17.16
34.46
47.77
56.88
62.03
63.88
63.19
60.76
57.24
53.14
48.80
44.48
40.43
36.80
33.72
31.24
29.23
27.54
25.90
24.00
21.52
18.15
13.63
7.93
1.24
-6.02
-13.33
-20.25
-26.61
-32.61
-38.74
-45.61
-53.65
-62.85
-72.52
-81.26
-87.24
-88.58
-83.93
-72.95
-56.47
-36.28
-14.66
6.18
24.57
39.50
50.60
57.87
61.58
62.16
60.24
56.69
52.49
48.50
45.28
42.89
41.04
39.28
37.30
35.06
32.75
30.58
28.59
26.56
24.05
20.60
16.00
10.29
3.82
-2.94
-9.53
-15.67
-21.31
-26.75
-32.51
-39.31
-47.75
-57.99
-69.44
-80.69
-89.68
-94.22
-92.65
-84.34
-69.94
-51.07
-29.89
-8.48
11.47
28.77
42.64
52.63
58.63
60.95
60.34
57.86
54.61
51.41
48.66
46.33
44.16
41.91
39.52
37.10
34.83
32.84
31.09
29.38
27.39
24.82
21.45
17.17
12.04
6.22
-0.01
-6.34
-12.52
-18.41
-24.13
-30.03
-36.60
-44.27
-53.15
-62.72
-71.76
-78.50
-81.07
-78.03
-68.92
-54.44
-36.25
-16.47
2.90
20.34
34.92
46.10
53.62
57.43
57.79
55.33
51.12
46.36
42.03
38.66
36.22
34.33
32.57
30.68
28.68
26.79
25.19
23.87
22.59
20.92
18.44
14.89
10.30
4.92
-0.85
-6.62
-12.16
-17.44
-22.64
-28.11
-34.27
-41.46
-49.81
-59.01
-68.16
-75.84
-80.34
-80.11
-74.20
-62.67
-46.56
-27.68
-8.12
10.21
25.90
38.16
46.65
51.38
52.62
50.90
47.02
41.99
36.86
32.47
29.24
27.13
25.71
24.46
23.00
21.23
19.29
17.44
15.78
14.20
12.33
9.73
6.06
1.26
-4.40
-10.42
-16.31
-21.76
-26.79
-31.79
-37.32
-43.90
-51.72
-60.36
-68.72
-75.15
-77.83
-75.31
-67.05
-53.57
-36.38
-17.50
1.04
17.67
31.37
41.64
48.26
51.29
51.06
48.22
43.72
38.59
33.73
29.63
26.37
23.74
21.42
19.20
17.00
14.82
12.70
10.54
8.20
5.44
2.06
-2.08
-7.01
-12.61
-18.68
-24.93
-31.19
-37.46
-43.96
-51.10
-59.20
-68.25
-77.66
-86.14
-91.93
-93.24
-88.77
-78.15
-62.11
-42.31
-20.90
-0.10
18.23
32.85
43.22
49.44
52.13
52.21
50.65
48.23
45.41
42.37
39.06
35.44
31.59
27.82
24.48
21.92
20.22
19.13
18.16
16.65
14.13
10.39
5.54
-0.07
-6.08
-12.23
-18.49
-24.99
-31.96
-39.70
-48.50
-58.44
-69.21
-79.86
-88.79
-93.99
-93.63
-86.68
-73.32
-54.96
-33.80
-12.16
8.10
25.84
40.51
51.98
60.15
65.05
66.82
65.89
62.95
58.88
54.51
50.40
46.84
43.82
41.24
38.99
37.00
35.22
33.52
31.64
29.19
25.81
21.27
15.53
8.82
1.55
-5.84
-13.00
-19.81
-26.45
-33.38
-41.25
-50.59
-61.50
-73.34
-84.62
-93.27
-97.11
-94.58
-85.19
-69.72
-49.89
-27.87
-5.71
15.00
33.19
48.16
59.47
66.85
70.34
70.35
67.75
63.66
59.22
55.24
52.08
49.64
47.56
45.46
43.13
40.58
37.98
35.51
33.22
30.94
28.32
24.91
20.35
14.51
7.61
0.13
-7.34
-14.42
-21.05
-27.53
-34.43
-42.34
-51.57
-61.96
-72.72
-82.43
-89.30
-91.52
-87.77
-77.58
-61.61
-41.45
-19.28
2.70
22.69
39.50
52.58
61.79
67.27
69.33
68.49
65.46
61.15
56.52
52.40
49.23
47.01
45.38
43.86
42.10
40.06
37.88
35.81
33.93
32.04
29.73
26.51
22.03
16.24
9.37
1.92
-5.60
-12.75
-19.31
-25.39
-31.31
-37.64
-44.93
-53.52
-63.30
-73.48
-82.67
-89.05
-90.82
-86.68
-76.23
-60.11
-39.91
-17.72
4.20
23.95
40.21
52.28
60.05
63.83
64.26
62.19
58.54
54.22
50.00
46.36
43.44
41.10
39.06
37.08
35.05
33.06
31.21
29.55
28.01
26.30
24.02
20.80
16.41
10.87
4.52
-2.16
-8.62
-14.55
-19.93
-25.11
-30.65
-37.12
-44.85
-53.74
-63.14
-71.81
-78.15
-80.52
-77.65
-69.09
-55.40
-38.03
-18.91
0.01
17.19
31.62
42.74
50.33
54.39
55.15
53.11
49.03
43.86
38.50
33.71
29.95
27.35
25.77
24.87
24.29
23.69
22.86
21.73
20.22
18.26
15.72
12.44
8.35
3.50
-1.91
-7.60
-13.32
-18.91
-24.36
-29.87
-35.76
-42.34
-49.73
-57.54
-64.86
-70.26
-72.23
-69.57
-61.84
-49.50
-33.77
-16.31
1.16
17.16
30.58
40.72
47.25
50.18
49.85
46.87
42.07
36.41
30.78
25.90
22.16
19.63
18.14
17.34
16.86
16.38
15.64
14.43
12.60
10.05
6.72
2.67
-2.00
-7.10
-12.45
-17.93
-23.49
-29.22
-35.26
-41.90
-49.37
-57.71
-66.57
-75.03
-81.66
-84.78
-82.91
-75.28
-62.17
-44.85
-25.35
-5.85
11.79
26.34
37.27
44.59
48.59
49.70
48.41
45.29
41.03
36.39
32.05
28.47
25.78
23.82
22.25
20.82
19.42
18.05
16.69
15.13
12.97
9.74
5.21
-0.51
-6.97
-13.58
-19.88
-25.78
-31.57
-37.78
-45.01
-53.62
-63.49
-73.91
-83.49
-90.39
-92.79
-89.31
-79.54
-64.19
-44.90
-23.80
-3.03
15.76
31.48
43.59
51.96
56.74
58.30
57.23
54.31
50.38
46.20
42.30
38.93
36.11
33.73
31.67
29.89
28.30
26.75
24.97
22.56
19.20
14.70
9.15
2.86
-3.72
-10.20
-16.37
-22.34
-28.46
-35.23
-43.16
-52.52
-63.12
-74.16
-84.29
-91.74
-94.77
-92.02
-82.98
-68.11
-48.80
-27.11
-5.23
14.88
31.86
45.08
54.47
60.34
63.15
63.36
61.51
58.21
54.19
50.16
46.62
43.71
41.21
38.77
36.16
33.41
30.74
28.33
26.14
23.79
20.76
16.65
11.33
5.05
-1.78
-8.70
-15.44
-21.95
-28.46
-35.36
-43.10
-52.03
-62.09
-72.59
-82.13
-88.77
-90.56
-86.08
-74.97
-58.11
-37.34
-15.00
6.71
26.10
42.16
54.42
62.82
67.53
68.93
67.63
64.45
60.26
55.90
51.92
48.54
45.73
43.32
41.18
39.23
37.46
35.76
33.91
31.57
28.42
24.28
19.18
13.34
7.12
0.82
-5.37
-11.46
-17.61
-24.11
-31.29
-39.45
-48.65
-58.60
-68.42
-76.68
-81.67
-81.79
-76.04
-64.37
-47.76
-27.99
-7.19
12.67
30.03
43.96
54.05
60.30
62.98
62.56
59.72
55.28
50.12
45.05
40.63
37.18
34.68
32.94
31.69
30.67
29.65
28.40
26.65
24.15
20.71
16.27
11.01
5.18
-0.88
-6.89
-12.68
-18.24
-23.76
-29.60
-36.25
-44.12
-53.23
-62.96
-71.99
-78.45
-80.45
-76.67
-66.83
-51.78
-33.31
-13.58
5.35
21.91
35.12
44.52
50.08
52.07
51.00
47.65
42.95
37.86
33.23
29.59
27.07
25.44
24.28
23.16
21.85
20.30
18.56
16.65
14.38
11.46
7.57
2.63
-3.15
-9.32
-15.41
-21.14
-26.57
-32.06
-38.12
-45.20
-53.42
-62.44
-71.34
-78.68
-82.78
-82.07
-75.60
-63.36
-46.40
-26.59
-6.12
12.99
29.25
41.83
50.43
55.16
56.34
54.54
50.55
45.36
39.94
35.06
31.11
28.05
25.57
23.31
21.05
18.78
16.58
14.57
12.66
10.59
8.00
4.53
-0.01
-5.57
-11.90
-18.62
-25.46
-32.34
-39.48
-47.33
-56.35
-66.67
-77.74
-88.22
-96.11
-99.28
-96.14
-86.13
-70.02
-49.55
-27.00
-4.51
16.33
34.56
49.70
61.49
69.78
74.56
76.06
74.84
71.70
67.49
62.91
58.37
54.05
49.95
46.04
42.34
38.85
35.55
32.34
29.02
25.37
21.19
16.31
10.67
4.27
-2.71
-10.01
-17.30
-24.36
-31.22
-38.23
-45.98
-55.02
-65.43
-76.53
-86.84
-94.28
-96.81
-92.99
-82.47
-66.08
-45.55
-23.12
-0.93
19.26
36.30
49.55
58.83
64.30
66.35
65.60
62.83
58.91
54.65
50.68
47.35
44.71
42.57
40.67
38.77
36.78
34.75
32.76
30.81
28.71
26.11
22.60
17.88
11.93
5.05
-2.29
-9.62
-16.63
-23.36
-30.07
-37.17
-45.10
-54.09
-63.97
-74.05
-83.02
-89.12
-90.57
-86.05
-75.14
-58.57
-38.07
-15.84
5.88
25.34
41.41
53.58
61.83
66.42
67.81
66.61
63.49
59.22
54.53
50.11
46.43
43.64
41.64
40.06
38.51
36.70
34.57
32.19
29.71
27.16
24.36
21.01
16.78
11.60
5.61
-0.80
-7.21
-13.31
-19.05
-24.60
-30.30
-36.56
-43.72
-51.99
-61.25
-70.88
-79.73
-86.18
-88.47
-85.23
-75.94
-61.12
-42.27
-21.46
-0.79
17.99
33.68
45.64
53.66
57.84
58.55
56.42
52.32
47.27
42.25
38.00
34.86
32.72
31.21
29.89
28.45
26.80
25.04
23.30
21.60
19.83
17.71
14.97
11.38
6.87
1.56
-4.31
-10.38
-16.33
-21.96
-27.30
-32.64
-38.41
-45.02
-52.70
-61.21
-69.78
-77.15
-81.74
-82.09
-77.22
-66.92
-51.88
-33.54
-13.74
5.62
22.97
37.17
47.58
53.98
56.59
55.92
52.81
48.27
43.31
38.80
35.26
32.84
31.35
30.36
29.41
28.16
26.49
24.46
22.30
20.17
18.08
15.85
13.10
9.46
4.71
-1.13
-7.76
-14.70
-21.53
-27.94
-33.90
-39.65
-45.60
-52.25
-59.95
-68.72
-78.03
-86.77
-93.37
-96.10
-93.52
-85.00
-70.84
-52.36
-31.49
-10.30
9.43
26.47
40.09
49.96
55.96
58.22
57.17
53.64
48.80
43.86
39.83
37.16
35.77
35.14
34.61
33.68
32.07
29.82
27.20
24.62
22.50
21.12
20.45
20.10
19.40
17.68
14.50
9.80
3.84
-3.04
-10.59
-18.81
-27.84
-37.86
-48.90
-60.73
-72.78
-84.05
-93.20
-98.65
-98.96
-93.19
-81.33
-64.30
-43.88
-22.23
-1.36
17.19
32.50
44.21
52.34
57.14
59.00
58.46
56.13
52.73
48.99
45.49
42.63
40.54
39.09
37.99
36.93
35.68
34.19
32.50
30.72
28.84
26.67
23.89
20.10
15.10
8.91
1.86
-5.54
-12.82
-19.65
-25.99
-32.03
-38.13
-44.74
-52.22
-60.72
-69.96
-79.12
-86.84
-91.45
-91.34
-85.45
-73.65
-56.82
-36.72
-15.46
4.96
23.03
37.87
49.14
56.84
61.11
62.28
60.84
57.49
53.12
48.64
44.78
41.98
40.22
39.17
38.29
37.12
35.41
33.26
30.95
28.78
26.81
24.80
22.29
18.82
14.18
8.48
2.09
-4.54
-11.07
-17.36
-23.46
-29.61
-36.15
-43.46
-51.72
-60.77
-69.86
-77.68
-82.55
-82.90
-77.68
-66.81
-51.16
-32.40
-12.54
6.54
23.36
36.98
46.99
53.29
56.09
55.80
53.08
48.77
43.83
39.15
35.35
32.68
31.02
30.00
29.17
28.22
27.02
25.65
24.27
22.92
21.43
19.45
16.51
12.31
6.88
0.57
-6.02
-12.34
-18.07
-23.31
-28.43
-33.96
-40.41
-48.01
-56.67
-65.78
-74.20
-80.33
-82.44
-79.14
-69.84
-55.10
-36.49
-16.21
3.55
21.04
35.24
45.69
52.31
55.23
54.76
51.56
46.58
41.00
35.91
31.93
29.14
27.11
25.29
23.30
21.16
19.17
17.65
16.66
15.91
14.80
12.72
9.25
4.33
-1.79
-8.62
-15.68
-22.55
-29.02
-35.13
-41.22
-47.84
-55.55
-64.67
-74.89
-85.14
-93.71
-98.60
-98.10
-91.30
-78.36
-60.47
-39.50
-17.58
3.35
21.79
36.80
47.93
55.15
58.73
59.18
57.21
53.68
49.49
45.40
41.92
39.20
37.08
35.25
33.39
31.36
29.19
26.98
24.76
22.37
19.50
15.76
10.86
4.76
-2.26
-9.70
-17.00
-23.77
-29.95
-35.87
-42.12
-49.40
-58.23
-68.60
-79.79
-90.30
-98.07
-100.95
-97.33
-86.67
-69.68
-48.18
-24.62
-1.42
19.50
36.92
50.28
59.47
64.73
66.54
65.64
62.94
59.42
55.81
52.50
49.50
46.59
43.52
40.26
36.94
33.85
31.14
28.76
26.43
23.75
20.34
15.91
10.34
3.62
-4.09
-12.49
-21.18
-29.72
-37.92
-45.88
-54.13
-63.38
-74.23
-86.74
-100.09
-112.57
-121.78
-125.28
-121.17
-108.78
-88.83
-63.33
-34.93
-6.28
20.57
44.31
64.34
80.34
92.10
99.46
102.47
101.67
98.06
92.98
87.70
83.10
79.45
76.52
73.84
71.02
67.90
64.55
61.13
57.74
54.31
50.62
46.37
41.28
35.21
28.17
20.39
12.24
4.15
-3.50
-10.60
-17.29
-23.94
-31.06
-39.11
-48.32
-58.49
-68.94
-78.39
-85.18
-87.56
-84.13
-74.41
-58.97
-39.47
-18.13
2.78
21.47
36.87
48.52
56.41
60.70
61.69
59.86
55.98
50.99
45.92
41.63
38.53
36.58
35.41
34.50
33.50
32.29
31.01
29.92
29.15
28.61
27.94
26.63
24.18
20.28
14.89
8.25
0.75
-7.15
-15.06
-22.71
-30.03
-37.17
-44.44
-52.21
-60.66
-69.48
-77.72
-83.88
-86.26
-83.46
-74.86
-60.84
-42.77
-22.63
-2.50
15.86
31.25
43.10
51.31
56.02
57.53
56.26
52.80
48.03
42.96
38.55
35.41
33.60
32.66
31.91
30.79
29.07
26.92
24.66
22.55
20.56
18.44
15.83
12.42
8.09
2.91
-2.97
-9.35
-16.01
-22.80
-29.63
-36.51
-43.64
-51.28
-59.76
-69.15
-79.19
-89.08
-97.52
-102.87
-103.55
-98.46
-87.37
-71.07
-51.19
-29.73
-8.61
10.78
27.62
41.52
52.31
59.85
64.08
65.09
63.28
59.42
54.47
49.49
45.31
42.42
40.86
40.28
40.12
39.79
38.90
37.26
34.91
31.98
28.63
24.95
20.95
16.57
11.70
6.23
0.11
-6.59
-13.63
-20.67
-27.41
-33.74
-39.93
-46.51
-54.14
-63.22
-73.64
-84.55
-94.41
-101.32
-103.50
-99.71
-89.69
-74.09
-54.41
-32.56
-10.53
9.95
27.56
41.53
51.62
58.05
61.37
62.25
61.37
59.32
56.58
53.58
50.70
48.23
46.26
44.73
43.41
42.09
40.64
39.12
37.65
36.33
35.02
33.42
31.12
27.75
23.10
17.23
10.39
2.98
-4.56
-11.89
-18.77
-25.11
-30.97
-36.54
-42.20
-48.43
-55.75
-64.44
-74.20
-83.89
-91.64
-95.22
-92.78
-83.49
-67.96
-47.99
-26.05
-4.52
14.84
31.04
43.68
52.75
58.36
60.75
60.41
58.01
54.40
50.46
46.88
44.08
42.18
41.07
40.48
40.14
39.74
39.07
37.98
36.43
34.48
32.17
29.52
26.47
22.88
18.59
13.55
7.82
1.62
-4.76
-11.11
-17.35
-23.61
-30.09
-37.04
-44.60
-52.81
-61.53
-70.33
-78.47
-84.77
-87.81
-86.22
-79.17
-66.76
-50.07
-30.90
-11.25
7.20
23.33
36.55
46.57
53.18
56.29
56.03
52.91
47.86
42.04
36.54
32.10
28.97
26.97
25.75
24.94
24.39
24.07
24.03
24.20
24.31
23.82
22.17
18.88
13.88
7.50
0.40
-6.68
-13.18
-18.93
-24.14
-29.22
-34.64
-40.73
-47.69
-55.51
-63.96
-72.46
-79.98
-85.10
-86.24
-82.13
-72.27
-57.18
-38.39
-18.04
1.73
19.22
33.42
44.02
51.15
55.11
56.27
55.01
51.84
47.45
42.66
38.23
34.61
31.83
29.53
27.17
24.31
20.90
17.21
13.78
11.07
9.19
7.81
6.24
3.70
-0.28
-5.71
-12.14
-18.84
-25.15
-30.73
-35.66
-40.41
-45.67
-52.14
-60.33
-70.22
-81.15
-91.70
-99.90
-103.65
-101.39
-92.51
-77.58
-58.22
-36.59
-14.82
5.36
22.88
37.17
48.06
55.59
59.98
61.58
60.92
58.67
55.59
52.40
49.69
47.79
46.72
46.19
45.75
44.91
43.41
41.26
38.75
36.24
33.87
31.43
28.39
24.15
18.40
11.24
3.29
-4.66
-11.98
-18.46
-24.39
-30.44
-37.36
-45.76
-55.83
-67.19
-78.76
-88.85
-95.41
-96.49
-90.87
-78.47
-60.47
-38.94
-16.30
5.32
24.43
40.20
52.37
60.88
65.92
67.80
67.09
64.57
61.09
57.37
53.87
50.82
48.24
46.05
44.12
42.30
40.47
38.54
36.50
34.38
32.16
29.69
26.68
22.80
17.88
11.99
5.49
-1.13
-7.49
-13.48
-19.32
-25.38
-32.07
-39.60
-48.01
-57.08
-66.29
-74.82
-81.44
-84.70
-83.24
-76.23
-63.76
-46.85
-27.25
-6.96
12.24
29.06
42.72
52.76
59.00
61.50
60.64
57.22
52.33
47.16
42.68
39.37
37.19
35.69
34.30
32.62
30.46
27.96
25.40
23.12
21.29
19.86
18.48
16.60
13.64
9.20
3.31
-3.59
-10.77
-17.51
-23.44
-28.67
-33.71
-39.21
-45.71
-53.31
-61.70
-70.07
-77.24
-81.74
-82.10
-77.20
-66.67
-51.19
-32.38
-12.43
6.42
22.47
34.78
43.13
47.78
49.21
47.98
44.73
40.19
35.18
30.45
26.55
23.65
21.57
19.96
18.48
16.95
15.39
13.92
12.65
11.49
10.20
8.46
5.96
2.49
-1.93
-7.14
-12.87
-18.90
-25.11
-31.58
-38.61
-46.52
-55.50
-65.30
-75.14
-83.63
-89.06
-89.79
-84.69
-73.54
-57.09
-36.98
-15.30
5.75
24.39
39.39
50.18
56.77
59.56
59.24
56.63
52.61
47.92
43.21
38.86
35.08
31.88
29.18
26.87
24.85
23.07
21.42
19.79
17.94
15.57
12.32
7.88
2.16
-4.62
-11.92
-19.08
-25.49
-31.00
-35.96
-41.21
-47.76
-56.38
-67.17
-79.30
-90.99
-99.90
-103.65
-100.59
-90.23
-73.49
-52.33
-29.26
-6.60
13.99
31.56
45.77
56.51
63.78
67.64
68.37
66.56
63.08
58.92
54.94
51.60
48.98
46.83
44.75
42.47
39.91
37.27
34.81
32.75
31.05
29.36
27.12
23.73
18.81
12.33
4.71
-3.39
-11.27
-18.48
-25.00
-31.22
-37.84
-45.63
-55.12
-66.24
-78.22
-89.55
-98.23
-102.22
-99.94
-90.78
-75.24
-54.91
-32.01
-8.87
12.56
31.02
45.93
57.20
65.01
69.60
71.30
70.56
68.01
64.45
60.68
57.29
54.60
52.58
51.00
49.60
48.21
46.76
45.28
43.75
42.06
39.95
37.07
33.07
27.77
21.26
13.87
6.17
-1.32
-8.26
-14.61
-20.64
-26.77
-33.46
-41.07
-49.80
-59.61
-70.14
-80.56
-89.50
-95.20
-95.92
-90.47
-78.66
-61.49
-40.85
-18.98
2.11
21.02
36.96
49.58
58.73
64.31
66.45
65.57
62.51
58.35
54.16
50.67
48.12
46.34
44.92
43.50
41.90
40.14
38.35
36.66
35.12
33.67
32.14
30.25
27.66
23.99
18.99
12.64
5.21
-2.80
-10.73
-18.07
-24.58
-30.42
-36.16
-42.50
-50.05
-58.94
-68.63
-77.85
-84.84
-87.82
-85.42
-77.15
-63.47
-45.77
-25.90
-5.88
12.58
28.28
40.51
48.98
53.74
55.04
53.39
49.61
44.81
40.11
36.47
34.31
33.46
33.29
33.07
32.31
30.94
29.24
27.59
26.20
24.90
23.27
20.74
16.93
11.72
5.40
-1.52
-8.44
-14.88
-20.66
-25.93
-31.09
-36.73
-43.38
-51.35
-60.57
-70.37
-79.54
-86.42
-89.21
-86.49
-77.64
-63.17
-44.61
-24.16
-4.07
13.88
28.69
40.00
47.88
52.50
54.04
52.83
49.46
44.83
40.04
36.04
33.36
31.94
31.24
30.57
29.36
27.47
25.12
22.73
20.60
18.76
16.83
14.26
10.54
5.46
-0.73
-7.53
-14.31
-20.69
-26.59
-32.28
-38.15
-44.59
-51.90
-60.19
-69.33
-78.85
-87.82
-94.85
-98.25
-96.45
-88.51
-74.48
-55.57
-33.83
-11.59
9.10
26.91
41.20
51.84
58.91
62.58
63.13
61.13
57.49
53.35
49.70
47.05
45.36
44.09
42.63
40.63
38.12
35.46
33.03
31.01
29.22
27.25
24.58
20.81
15.78
9.61
2.57
-4.94
-12.55
-19.98
-27.06
-33.84
-40.55
-47.65
-55.57
-64.57
-74.37
-84.02
-91.93
-96.25
-95.35
-88.37
-75.54
-58.03
-37.70
-16.57
3.63
21.61
36.61
48.25
56.38
61.07
62.63
61.64
58.99
55.65
52.45
49.87
47.93
46.32
44.66
42.72
40.53
38.34
36.46
35.01
33.93
32.88
31.33
28.69
24.50
18.54
11.06
2.72
-5.60
-13.14
-19.55
-25.06
-30.35
-36.27
-43.52
-52.33
-62.29
-72.34
-80.90
-86.15
-86.46
-80.87
-69.35
-52.90
-33.25
-12.46
7.54
25.25
39.69
50.34
57.06
60.08
59.90
57.34
53.38
49.03
45.12
42.12
40.08
38.70
37.53
36.17
34.49
32.59
30.69
28.96
27.31
25.42
22.80
19.06
14.04
7.94
1.20
-5.62
-12.02
-17.76
-22.88
-27.75
-32.93
-39.02
-46.38
-54.99
-64.18
-72.68
-78.85
-80.98
-77.84
-69.04
-55.20
-37.76
-18.65
0.24
17.35
31.59
42.33
49.27
52.45
52.21
49.29
44.69
39.55
34.83
31.09
28.41
26.50
24.94
23.45
21.92
20.45
19.17
18.11
17.09
15.74
13.63
10.38
5.88
0.31
-5.90
-12.26
-18.38
-24.17
-29.83
-35.80
-42.52
-50.28
-59.04
-68.36
-77.33
-84.62
-88.68
-88.07
-81.83
-69.93
-53.33
-33.81
-13.49
5.66
22.26
35.57
45.41
51.82
55.01
55.24
52.97
49.00
44.28
39.76
36.12
33.55
31.81
30.41
28.95
27.28
25.55
23.99
22.71
21.48
19.81
17.13
13.06
7.57
1.00
-6.13
-13.33
-20.32
-27.05
-33.73
-40.63
-48.13
-56.56
-66.06
-76.37
-86.57
-95.02
-99.67
-98.61
-90.76
-76.35
-56.90
-34.79
-12.45
8.18
26.00
40.56
51.76
59.55
63.96
65.15
63.68
60.47
56.56
52.87
49.87
47.60
45.74
43.95
42.00
39.83
37.57
35.34
33.20
31.05
28.70
25.81
22.03
17.10
10.97
3.89
-3.61
-10.92
-17.65
-23.81
-29.84
-36.47
-44.39
-53.92
-64.78
-76.08
-86.33
-93.72
-96.47
-93.22
-83.47
-67.74
-47.57
-25.18
-2.90
17.32
34.26
47.41
56.81
62.74
65.60
65.85
64.02
60.81
56.93
53.07
49.66
46.87
44.57
42.52
40.52
38.51
36.58
34.84
33.28
31.69
29.67
26.75
22.57
17.04
10.42
3.20
-4.02
-10.79
-16.95
-22.69
-28.48
-34.91
-42.46
-51.28
-61.12
-71.15
-80.06
-86.25
-88.11
-84.44
-74.82
-59.77
-40.69
-19.54
1.59
20.94
37.26
49.87
58.58
63.51
65.05
63.75
60.37
55.78
50.87
46.42
42.88
40.37
38.64
37.28
35.86
34.10
31.97
29.59
27.12
24.60
21.90
18.74
14.81
9.96
4.31
-1.81
-7.91
-13.64
-18.91
-24.01
-29.49
-35.98
-43.86
-53.02
-62.68
-71.52
-77.82
-79.93
-76.68
-67.74
-53.69
-35.97
-16.49
2.72
19.95
33.97
44.17
50.41
52.96
52.40
49.52
45.20
40.34
35.66
31.59
28.29
25.67
23.53
21.70
20.08
18.64
17.36
16.14
14.70
12.65
9.59
5.26
-0.31
-6.79
-13.63
-20.26
-26.32
-31.79
-36.97
-42.43
-48.75
-56.33
-65.08
-74.35
-82.81
-88.76
-90.41
-86.42
-76.35
-60.83
-41.45
-20.36
0.28
18.73
33.90
45.32
52.97
57.13
58.28
57.04
54.12
50.29
46.26
42.54
39.38
36.78
34.58
32.62
30.78
29.07
27.52
26.09
24.57
22.61
19.83
15.92
10.82
4.75
-1.88
-8.59
-15.06
-21.18
-27.18
-33.50
-40.64
-49.01
-58.72
-69.34
-79.86
-88.70
-94.04
-94.20
-88.23
-76.17
-59.10
-38.92
-17.77
2.40
20.19
34.77
45.83
53.35
57.50
58.66
57.36
54.38
50.50
46.47
42.77
39.61
36.97
34.66
32.53
30.49
28.54
26.73
25.04
23.33
21.32
18.63
14.94
10.10
4.21
-2.35
-9.10
-15.59
-21.64
-27.41
-33.40
-40.23
-48.41
-58.06
-68.72
-79.27
-88.08
-93.27
-93.16
-86.73
-73.97
-55.96
-34.63
-12.33
8.80
27.16
41.85
52.58
59.42
62.67
62.82
60.60
57.00
53.07
49.70
47.35
45.94
44.98
43.85
42.10
39.63
36.65
33.54
30.64
28.04
25.58
22.88
19.54
15.28
10.07
4.08
-2.34
-8.86
-15.31
-21.69
-28.20
-35.15
-42.87
-51.53
-60.96
-70.47
-78.81
-84.37
-85.45
-80.83
-70.18
-54.28
-34.79
-13.92
6.18
23.79
37.85
47.91
53.99
56.44
55.82
52.87
48.47
43.47
38.62
34.39
30.97
28.31
26.23
24.58
23.24
22.17
21.23
20.24
18.86
16.80
13.80
9.85
5.11
-0.12
-5.55
-11.01
-16.44
-21.98
-27.87
-34.37
-41.78
-50.20
-59.43
-68.74
-76.85
-82.10
-82.84
-77.95
-67.29
-51.80
-33.24
-13.69
5.00
21.46
34.95
45.07
51.69
54.83
54.69
51.83
47.11
41.52
35.99
31.13
27.17
24.10
21.79
20.12
18.99
18.22
17.53
16.51
14.79
12.07
8.24
3.37
-2.34
-8.59
-15.01
-21.29
-27.27
-33.06
-39.11
-46.13
-54.69
-64.89
-76.00
-86.42
-94.01
-96.61
-92.65
-81.66
-64.44
-42.84
-19.31
3.71
24.20
40.89
53.21
61.18
65.19
65.89
64.13
60.90
57.17
53.72
50.88
48.55
46.31
43.74
40.65
37.15
33.55
30.10
26.93
23.88
20.67
16.94
12.42
6.99
0.69
-6.24
-13.46
-20.66
-27.66
-34.58
-41.81
-49.87
-59.09
-69.33
-79.69
-88.62
-94.12
-94.24
-87.70
-74.31
-55.09
-32.10
-7.91
14.99
34.74
50.26
61.21
67.80
70.57
70.24
67.65
63.72
59.33
55.18
51.64
48.74
46.24
43.81
41.25
38.55
35.86
33.30
30.82
28.17
24.94
20.79
15.56
9.37
2.55
-4.52
-11.55
-18.45
-25.41
-32.80
-41.10
-50.66
-61.41
-72.66
-83.00
-90.43
-92.95
-89.07
-78.35
-61.62
-40.70
-17.94
4.41
24.55
41.36
54.24
62.98
67.68
68.71
66.78
62.92
58.21
53.59
49.56
46.17
43.13
40.16
37.16
34.27
31.73
29.66
27.94
26.20
23.99
20.96
16.98
12.11
6.55
0.51
-5.83
-12.30
-18.83
-25.43
-32.31
-39.81
-48.30
-57.83
-67.79
-76.85
-83.10
-84.56
-79.90
-68.83
-52.35
-32.38
-11.22
9.06
26.95
41.55
52.48
59.65
63.18
63.43
61.02
56.81
51.79
46.81
42.45
38.92
36.08
33.67
31.42
29.22
27.11
25.15
23.34
21.50
19.27
16.25
12.12
6.80
0.54
-6.21
-12.92
-19.24
-25.13
-30.92
-37.18
-44.43
-52.92
-62.27
-71.48
-78.90
-82.73
-81.47
-74.38
-61.77
-44.85
-25.45
-5.54
13.16
29.35
42.19
51.19
56.24
57.55
55.70
51.55
46.18
40.61
35.62
31.62
28.62
26.31
24.31
22.30
20.19
18.06
16.07
14.22
12.31
9.91
6.59
2.12
-3.46
-9.83
-16.56
-23.32
-30.00
-36.71
-43.73
-51.34
-59.74
-68.85
-78.26
-87.08
-93.96
-97.29
-95.48
-87.55
-73.43
-54.13
-31.63
-8.33
13.48
32.07
46.47
56.41
62.12
64.13
63.13
59.95
55.49
50.63
46.04
42.08
38.72
35.71
32.70
29.45
25.95
22.38
19.02
16.06
13.46
10.95
8.07
4.41
-0.21
-5.68
-11.60
-17.53
-23.22
-28.77
-34.65
-41.49
-49.82
-59.74
-70.75
-81.65
-90.70
-95.96
-95.75
-89.17
-76.30
-58.25
-36.84
-14.20
7.68
27.16
43.07
54.76
62.05
65.26
65.16
62.78
59.22
55.37
51.73
48.39
45.22
42.04
38.80
35.69
32.95
30.76
29.11
27.76
26.34
24.48
21.88
18.34
13.74
8.05
1.39
-5.95
-13.57
-21.14
-28.59
-36.21
-44.55
-54.12
-65.00
-76.61
-87.55
-95.88
-99.53
-96.93
-87.39
-71.49
-50.85
-27.80
-4.71
16.48
34.52
48.77
59.00
65.17
67.45
66.31
62.58
57.40
51.95
47.12
43.36
40.61
38.54
36.77
35.11
33.54
32.17
31.09
30.22
29.24
27.70
25.11
21.11
15.65
9.02
1.72
-5.70
-12.90
-19.86
-26.90
-34.51
-43.18
-53.12
-64.12
-75.40
-85.61
-93.06
-95.97
-92.95
-83.39
-67.70
-47.30
-24.30
-1.06
20.30
38.23
51.86
60.97
65.79
66.93
65.21
61.56
56.99
52.34
48.25
45.01
42.65
40.94
39.58
38.32
37.04
35.76
34.51
33.28
31.85
29.81
26.65
22.00
15.80
8.47
0.70
-6.76
-13.43
-19.38
-25.17
-31.59
-39.38
-48.76
-59.30
-69.85
-78.71
-84.03
-84.17
-78.18
-66.08
-48.91
-28.50
-7.10
13.12
30.52
44.10
53.56
59.07
61.09
60.22
57.12
52.50
47.10
41.63
36.66
32.54
29.32
26.79
24.66
22.64
20.58
18.52
16.51
14.57
12.53
10.06
6.82
2.57
-2.69
-8.73
-15.27
-22.10
-29.29
-37.08
-45.79
-55.50
-65.84
-75.88
-84.15
-88.99
-88.91
-83.00
-71.23
-54.46
-34.33
-12.83
8.06
26.65
41.82
52.97
60.03
63.31
63.37
60.91
56.70
51.48
45.90
40.51
35.70
31.68
28.50
25.97
23.85
21.83
19.65
17.14
14.18
10.67
6.51
1.60
-4.01
-10.10
-16.34
-22.39
-28.14
-33.87
-40.24
-48.02
-57.68
-68.95
-80.66
-90.84
-97.18
-97.69
-91.32
-78.20
-59.65
-37.77
-14.91
6.81
25.83
41.25
52.70
60.27
64.29
65.30
63.94
60.90
56.86
52.43
48.06
44.00
40.34
37.09
34.25
31.79
29.66
27.70
25.66
23.17
19.89
15.62
10.37
4.31
-2.28
-9.10
-15.99
-22.90
-29.98
-37.55
-46.04
-55.74
-66.51
-77.56
-87.35
-93.83
-95.00
-89.48
-77.08
-58.87
-36.91
-13.69
8.49
27.96
43.73
55.49
63.30
67.44
68.35
66.68
63.21
58.82
54.26
50.01
46.14
42.45
38.62
34.48
30.13
25.89
22.11
18.93
16.16
13.33
9.93
5.67
0.60
-4.96
-10.57
-15.98
-21.27
-26.83
-33.21
-40.91
-50.16
-60.78
-72.07
-82.80
-91.29
-95.72
-94.49
-86.68
-72.43
-52.99
-30.40
-7.04
14.92
33.86
48.83
59.47
65.89
68.53
68.14
65.65
62.03
58.07
54.28
50.77
47.45
44.18
40.96
37.94
35.39
33.44
31.97
30.59
28.76
25.98
21.98
16.80
10.73
4.20
-2.41
-8.86
-15.10
-21.29
-27.75
-34.95
-43.27
-52.88
-63.34
-73.55
-81.76
-86.01
-84.65
-76.94
-63.28
-45.13
-24.57
-3.77
15.48
31.99
45.11
54.56
60.29
62.45
61.41
57.80
52.60
46.85
41.51
37.16
33.96
31.64
29.81
28.16
26.57
25.10
23.84
22.70
21.36
19.33
16.16
11.66
5.98
-0.46
-7.17
-13.84
-20.41
-27.09
-34.25
-42.28
-51.43
-61.57
-72.12
-81.94
-89.39
-92.66
-90.22
-81.34
-66.39
-46.88
-25.08
-3.50
15.70
31.10
42.08
48.73
51.62
51.52
49.20
45.44
40.89
36.12
31.62
27.65
24.27
21.36
18.74
16.34
14.23
12.59
11.51
10.82
10.01
8.41
5.41
0.85
-5.00
-11.48
-17.88
-23.79
-29.21
-34.56
-40.53
-47.76
-56.58
-66.79
-77.43
-86.84
-92.94
-93.70
-87.79
-75.00
-56.38
-34.02
-10.44
11.99
31.44
46.80
57.60
63.84
65.91
64.55
60.79
55.82
50.76
46.39
42.98
40.36
38.13
35.91
33.58
31.28
29.20
27.43
25.75
23.73
20.91
16.97
11.87
5.86
-0.70
-7.48
-14.27
-21.09
-28.16
-35.78
-44.25
-53.76
-64.15
-74.85
-84.75
-92.27
-95.66
-93.38
-84.61
-69.54
-49.51
-26.64
-3.37
18.11
36.22
50.12
59.61
64.89
66.49
65.11
61.64
57.01
52.11
47.60
43.79
40.69
38.06
35.64
33.31
31.16
29.36
27.98
26.84
25.46
23.15
19.35
13.84
6.89
-0.88
-8.79
-16.39
-23.58
-30.63
-38.00
-46.10
-55.07
-64.58
-73.74
-81.06
-84.74
-83.10
-75.09
-60.80
-41.56
-19.64
2.39
22.27
38.51
50.51
58.39
62.64
63.91
62.85
60.07
56.19
51.74
47.16
42.77
38.74
35.24
32.39
30.28
28.93
28.17
27.64
26.85
25.28
22.56
18.51
13.22
7.01
0.33
-6.34
-12.70
-18.75
-24.89
-31.79
-40.02
-49.64
-59.85
-68.94
-74.69
-75.08
-68.97
-56.54
-39.30
-19.53
0.32
18.23
32.91
43.79
50.82
54.24
54.49
52.12
47.79
42.25
36.30
30.62
25.76
21.99
19.27
17.29
15.61
13.79
11.54
8.80
5.66
2.24
-1.50
-5.72
-10.68
-16.52
-23.14
-30.24
-37.46
-44.66
-51.98
-59.77
-68.11
-76.44
-83.30
-86.63
-84.43
-75.58
-60.41
-40.67
-18.93
2.24
20.99
36.38
48.14
56.29
60.82
61.78
59.44
54.50
48.05
41.28
35.19
30.29
26.65
24.06
22.19
20.70
19.22
17.39
14.92
11.62
7.51
2.77
-2.39
-7.83
-13.56
-19.71
-26.45
-33.96
-42.40
-51.78
-61.86
-71.98
-80.86
-86.76
-87.86
-82.80
-71.22
-54.00
-33.10
-10.96
10.02
28.11
42.41
52.68
59.17
62.25
62.33
59.84
55.38
49.71
43.75
38.38
34.21
31.43
29.83
28.94
28.16
27.03
25.21
22.57
19.03
14.65
9.50
3.72
-2.52
-9.11
-15.99
-23.29
-31.28
-40.25
-50.35
-61.23
-71.86
-80.57
-85.34
-84.39
-76.76
-62.75
-43.82
-22.22
-0.34
19.85
37.06
50.66
60.52
66.83
69.94
70.38
68.75
65.73
61.90
57.74
53.51
49.32
45.22
41.23
37.44
33.92
30.71
27.73
24.74
21.38
17.31
12.36
6.54
0.11
-6.61
-13.32
-19.94
-26.60
-33.64
-41.49
-50.48
-60.54
-70.98
-80.41
-86.88
-88.39
-83.52
-71.95
-54.67
-33.71
-11.57
9.48
27.79
42.48
53.27
60.18
63.46
63.55
61.12
57.11
52.51
48.20
44.64
41.87
39.59
37.47
35.32
33.15
31.14
29.39
27.76
25.88
23.27
19.52
14.48
8.31
1.45
-5.57
-12.28
-18.43
-24.14
-29.84
-36.17
-43.71
-52.67
-62.61
-72.28
-79.84
-83.27
-80.97
-72.24
-57.56
-38.53
-17.35
3.64
22.54
38.11
49.79
57.46
61.37
61.94
59.81
55.83
50.98
46.20
42.16
39.06
36.69
34.60
32.39
29.88
27.22
24.72
22.61
20.87
19.20
17.07
14.00
9.73
4.33
-1.82
-8.22
-14.38
-20.02
-25.14
-30.03
-35.12
-40.92
-47.80
-55.80
-64.49
-72.82
-79.24
-81.98
-79.56
-71.30
-57.60
-39.88
-20.20
-0.73
16.77
31.16
41.92
48.91
52.30
52.47
50.02
45.80
40.79
35.92
31.83
28.75
26.55
24.86
23.33
21.76
20.15
18.64
17.34
16.19
14.88
12.95
9.94
5.60
0.02
-6.38
-13.07
-19.58
-25.68
-31.47
-37.25
-43.48
-50.62
-58.98
-68.47
-78.46
-87.63
-94.13
-95.98
-91.70
-80.85
-64.23
-43.73
-21.69
-0.31
18.79
34.73
47.14
55.96
61.22
63.14
62.16
59.04
54.77
50.31
46.40
43.40
41.25
39.68
38.32
36.87
35.14
33.09
30.71
28.07
25.21
22.13
18.69
14.68
9.85
4.06
-2.59
-9.77
-16.96
-23.75
-29.97
-35.83
-41.84
-48.60
-56.59
-65.87
-76.00
-85.92
-94.12
-98.80
-98.32
-91.67
-78.80
-60.75
-39.37
-16.95
4.44
23.20
38.46
49.96
57.85
62.52
64.47
64.25
62.43
59.60
56.23
52.71
49.34
46.31
43.73
41.64
39.96
38.50
37.00
35.25
33.09
30.50
27.57
24.38
20.93
17.11
12.76
7.72
1.92
-4.52
-11.39
-18.39
-25.24
-31.75
-37.91
-43.91
-50.11
-57.00
-64.91
-73.80
-83.04
-91.27
-96.72
-97.57
-92.52
-81.19
-64.29
-43.48
-20.92
1.23
21.15
37.65
50.17
58.70
63.58
65.39
64.80
62.49
59.20
55.56
52.13
49.22
46.89
45.00
43.35
41.80
40.29
38.86
37.49
36.05
34.30
32.01
29.10
25.62
21.68
17.33
12.49
7.07
1.01
-5.50
-12.17
-18.68
-24.86
-30.75
-36.55
-42.50
-48.84
-55.70
-63.12
-71.03
-78.98
-86.13
-91.15
-92.51
-88.86
-79.53
-64.86
-46.16
-25.46
-4.86
13.81
29.41
41.43
49.84
54.87
56.86
56.24
53.57
49.58
45.11
40.92
37.55
35.10
33.40
32.12
30.96
29.77
28.57
27.42
26.33
25.21
23.83
21.91
19.19
15.54
10.99
5.79
0.30
-5.16
-10.35
-15.25
-19.97
-24.71
-29.72
-35.18
-41.24
-47.91
-54.91
-61.58
-66.84
-69.39
-68.01
-61.98
-51.33
-36.90
-20.16
-2.84
13.49
27.59
38.73
46.57
51.06
52.41
51.01
47.49
42.65
37.38
32.45
28.34
25.17
22.74
20.73
18.87
17.07
15.37
13.79
12.26
10.52
8.27
5.23
1.30
-3.44
-8.75
-14.34
-19.97
-25.52
-31.02
-36.65
-42.65
-49.29
-56.74
-64.85
-73.09
-80.44
-85.56
-87.01
-83.72
-75.24
-61.96
-45.07
-26.20
-7.16
10.49
25.57
37.37
45.57
50.18
51.50
50.12
46.82
42.50
37.98
33.89
30.52
27.87
25.72
23.85
22.08
20.40
18.80
17.24
15.53
13.36
10.40
6.45
1.53
-4.10
-10.09
-16.14
-22.14
-28.18
-34.53
-41.53
-49.43
-58.25
-67.62
-76.75
-84.48
-89.41
-90.23
-86.03
-76.49
-62.10
-44.06
-24.05
-3.96
14.52
30.09
42.03
50.16
54.75
56.29
55.45
52.92
49.47
45.77
42.35
39.48
37.13
35.12
33.23
31.40
29.69
28.19
26.81
25.28
23.15
19.97
15.50
9.82
3.26
-3.70
-10.65
-17.35
-23.80
-30.25
-37.12
-44.80
-53.55
-63.19
-72.96
-81.51
-87.10
-88.02
-83.09
-72.11
-55.89
-36.13
-14.91
5.77
24.36
39.87
51.78
59.93
64.45
65.73
64.44
61.47
57.78
54.19
51.16
48.82
46.96
45.25
43.38
41.27
38.97
36.64
34.33
31.97
29.24
25.76
21.22
15.60
9.15
2.31
-4.46
-10.95
-17.30
-23.90
-31.28
-39.84
-49.65
-60.26
-70.65
-79.36
-84.68
-85.06
-79.53
-68.04
-51.57
-31.85
-11.01
8.97
26.59
40.96
51.71
58.79
62.41
62.94
61.00
57.37
52.87
48.22
43.87
40.00
36.64
33.73
31.27
29.29
27.75
26.48
25.22
23.63
21.40
18.32
14.36
9.60
4.27
-1.39
-7.15
-12.92
-18.82
-25.13
-32.24
-40.41
-49.52
-58.90
-67.34
-73.24
-75.00
-71.46
-62.32
-48.23
-30.69
-11.65
6.93
23.49
37.02
47.04
53.39
56.18
55.72
52.55
47.50
41.56
35.72
30.70
26.82
24.04
22.09
20.60
19.32
18.02
16.54
14.70
12.30
9.20
5.36
0.87
-4.08
-9.29
-14.65
-20.14
-25.96
-32.39
-39.73
-48.13
-57.36
-66.68
-74.77
-79.93
-80.51
-75.36
-64.26
-48.10
-28.66
-8.19
11.11
27.63
40.49
49.48
54.85
57.08
56.68
54.23
50.33
45.59
40.61
35.84
31.61
28.02
25.07
22.67
20.64
18.80
16.86
14.52
11.48
7.55
2.69
-2.96
-9.09
-15.37
-21.55
-27.63
-33.88
-40.81
-48.89
-58.32
-68.74
-79.12
-87.82
-93.03
-93.10
-87.07
-74.91
-57.54
-36.67
-14.39
7.19
26.32
41.76
52.87
59.63
62.45
62.10
59.47
55.48
50.87
46.18
41.73
37.69
34.14
31.15
28.73
26.82
25.24
23.67
21.74
19.09
15.49
10.82
5.19
-1.20
-8.12
-15.38
-22.94
-30.91
-39.50
-48.95
-59.34
-70.36
-81.18
-90.37
-96.09
-96.55
-90.50
-77.73
-59.25
-37.07
-13.71
8.49
27.87
43.49
55.15
62.93
67.10
68.01
66.14
62.23
57.22
52.05
47.47
43.82
41.04
38.83
36.84
34.88
32.97
31.16
29.41
27.44
24.76
20.89
15.62
9.10
1.85
-5.53
-12.58
-19.24
-25.86
-33.01
-41.28
-51.04
-62.12
-73.67
-84.12
-91.40
-93.45
-88.84
-77.29
-59.82
-38.48
-15.71
6.32
26.12
42.89
56.29
66.13
72.27
74.74
73.92
70.66
66.15
61.51
57.52
54.37
51.82
49.48
47.12
44.75
42.55
40.65
39.00
37.31
35.14
32.08
27.87
22.48
16.09
9.04
1.72
-5.50
-12.44
-19.16
-25.99
-33.40
-41.85
-51.42
-61.74
-71.80
-80.09
-84.80
-84.29
-77.59
-64.77
-47.02
-26.44
-5.38
14.12
30.71
43.79
53.27
59.23
61.77
61.07
57.66
52.45
46.71
41.65
38.04
35.96
34.85
33.92
32.53
30.48
28.02
25.65
23.78
22.46
21.33
19.76
17.12
13.03
7.56
1.12
-5.64
-12.16
-18.15
-23.69
-29.16
-35.16
-42.25
-50.68
-60.22
-69.95
-78.36
-83.57
-83.86
-78.18
-66.53
-49.99
-30.42
-9.94
9.51
26.52
40.15
49.89
55.57
57.36
55.85
52.01
47.02
41.98
37.66
34.34
31.91
30.03
28.38
26.80
25.23
23.65
21.97
19.96
17.36
13.93
9.60
4.44
-1.30
-7.31
-13.31
-19.06
-24.50
-29.74
-35.08
-40.96
-47.84
-56.02
-65.31
-74.90
-83.26
-88.47
-88.69
-82.73
-70.51
-53.15
-32.62
-11.23
8.98
26.58
40.74
51.08
57.52
60.16
59.48
56.26
51.56
46.49
41.88
38.10
35.10
32.55
30.13
27.67
25.19
22.82
20.66
18.67
16.66
14.24
10.98
6.49
0.61
-6.50
-14.32
-22.18
-29.45
-35.88
-41.71
-47.58
-54.29
-62.42
-71.94
-82.08
-91.33
-97.82
-99.73
-95.76
-85.48
-69.46
-49.17
-26.65
-4.09
16.61
34.10
47.70
57.26
63.00
65.38
64.99
62.57
58.97
55.06
51.51
48.62
46.28
44.04
41.48
38.48
35.24
32.23
29.83
28.08
26.57
24.59
21.43
16.69
10.43
3.14
-4.48
-11.79
-18.46
-24.58
-30.61
-37.29
-45.35
-55.18
-66.56
-78.35
-88.65
-95.14
-95.74
-89.31
-75.99
-57.22
-35.29
-12.71
8.42
26.69
41.43
52.44
59.81
63.81
64.79
63.41
60.46
56.84
53.31
50.25
47.63
45.12
42.36
39.22
35.87
32.76
30.26
28.46
27.06
25.44
22.93
19.10
13.90
7.61
0.75
-6.25
-13.12
-19.83
-26.54
-33.54
-41.15
-49.60
-58.91
-68.72
-78.08
-85.49
-89.13
-87.35
-79.18
-64.88
-45.85
-24.37
-2.92
16.48
32.62
45.04
53.81
59.17
61.35
60.72
57.81
53.48
48.69
44.26
40.63
37.80
35.43
33.18
30.91
28.67
26.65
24.93
23.35
21.54
19.07
15.60
11.07
5.71
-0.06
-5.80
-11.25
-16.40
-21.55
-27.16
-33.71
-41.45
-50.27
-59.56
-68.22
-74.81
-77.84
-76.06
-68.88
-56.53
-40.09
-21.26
-1.96
15.99
31.19
42.80
50.49
54.35
54.77
52.38
47.95
42.36
36.44
30.92
26.28
22.77
20.36
18.87
18.01
17.47
16.98
16.25
15.04
13.08
10.15
6.11
1.08
-4.64
-10.60
-16.33
-21.58
-26.43
-31.37
-37.06
-44.11
-52.72
-62.40
-71.97
-79.67
-83.65
-82.35
-75.01
-61.86
-44.12
-23.75
-2.93
16.34
32.55
44.81
52.85
56.79
57.15
54.64
50.16
44.66
39.04
33.96
29.80
26.62
24.21
22.28
20.52
18.71
16.70
14.34
11.53
8.13
4.05
-0.74
-6.17
-12.08
-18.28
-24.59
-31.01
-37.68
-44.92
-53.10
-62.42
-72.61
-82.78
-91.46
-96.79
-97.07
-91.15
-78.89
-61.19
-39.83
-17.02
5.00
24.40
40.02
51.31
58.38
61.74
62.17
60.58
57.80
54.53
51.20
48.04
45.04
42.10
39.08
35.98
32.89
30.03
27.56
25.47
23.52
21.19
17.87
13.09
6.73
-0.92
-9.19
-17.40
-25.11
-32.38
-39.73
-47.87
-57.32
-67.98
-78.95
-88.53
-94.66
-95.43
-89.62
-77.12
-58.97
-37.04
-13.64
9.02
29.17
45.65
57.90
65.89
70.01
70.93
69.49
66.56
62.90
59.07
55.33
51.73
48.16
44.47
40.65
36.80
33.19
30.04
27.44
25.20
22.84
19.77
15.53
9.96
3.24
-4.15
-11.73
-19.12
-26.27
-33.44
-41.13
-49.81
-59.65
-70.21
-80.35
-88.29
-92.09
-90.13
-81.70
-67.17
-47.90
-25.82
-3.01
18.76
38.04
53.77
65.23
72.06
74.43
73.06
69.12
63.96
58.80
54.35
50.81
47.94
45.35
42.74
40.08
37.55
35.36
33.62
32.16
30.54
28.18
24.57
19.49
13.12
5.98
-1.23
-7.96
-14.03
-19.76
-25.80
-32.98
-41.84
-52.40
-63.94
-75.04
-83.84
-88.43
-87.29
-79.68
-65.90
-47.26
-25.82
-3.93
16.26
33.20
46.05
54.63
59.27
60.56
59.20
55.99
51.70
47.04
42.53
38.42
34.69
31.14
27.57
23.90
20.29
16.97
14.13
11.76
9.62
7.28
4.35
0.55
-4.12
-9.46
-15.13
-20.87
-26.57
-32.38
-38.67
-45.86
-54.18
-63.35
-72.42
-79.81
-83.66
-82.33
-74.97
-61.80
-44.12
-23.90
-3.32
15.70
31.81
44.21
52.60
57.04
57.91
55.84
51.68
46.36
40.76
35.52
30.99
27.23
24.12
21.47
19.15
17.08
15.17
13.28
11.18
8.59
5.26
1.10
-3.86
-9.44
-15.45
-21.73
-28.26
-35.18
-42.75
-51.25
-60.79
-71.01
-80.90
-88.87
-92.97
-91.48
-83.44
-69.08
-49.77
-27.70
-5.28
15.42
33.05
46.96
57.00
63.28
66.02
65.57
62.47
57.52
51.67
45.81
40.61
36.31
32.85
30.03
27.65
25.60
23.77
21.99
19.92
17.15
13.33
8.35
2.38
-4.17
-10.84
-17.33
-23.61
-29.98
-36.98
-45.19
-54.99
-66.21
-77.95
-88.51
-95.70
-97.36
-92.06
-79.57
-61.03
-38.56
-14.75
8.05
28.13
44.51
56.82
65.09
69.61
70.84
69.47
66.32
62.21
57.80
53.47
49.36
45.47
41.79
38.39
35.42
32.98
31.00
29.20
27.11
24.26
20.33
15.24
9.17
2.47
-4.51
-11.52
-18.47
-25.47
-32.78
-40.81
-49.91
-60.08
-70.75
-80.58
-87.63
-89.83
-85.64
-74.60
-57.58
-36.52
-13.91
7.88
27.06
42.60
54.11
61.62
65.40
65.89
63.66
59.42
54.00
48.15
42.51
37.47
33.18
29.64
26.74
24.42
22.55
21.02
19.57
17.83
15.37
11.81
6.98
0.99
-5.81
-12.90
-19.83
-26.35
-32.55
-38.85
-45.85
-54.10
-63.74
-74.31
-84.55
-92.67
-96.66
-94.93
-86.83
-72.85
-54.58
-34.19
-13.90
4.46
19.64
30.99
38.28
41.64
41.55
38.90
34.84
30.59
27.19
25.22
24.77
25.55
27.12
29.15
31.46
34.00
36.65
39.14
41.03
41.77
40.88
38.11
33.49
27.33
20.15
12.49
4.72
-3.06
-11.08
-19.87
-29.98
-41.68
-54.64
-67.78
-79.24
-86.83
-88.60
-83.38
-71.26
-53.50
-32.24
-9.86
11.54
30.48
46.09
57.97
65.94
70.01
70.49
68.00
63.54
58.25
53.08
48.64
45.05
42.10
39.50
37.01
34.58
32.30
30.22
28.28
26.19
23.56
19.94
15.08
8.98
1.95
-5.54
-13.00
-20.16
-27.05
-34.00
-41.49
-50.00
-59.78
-70.66
-81.87
-91.97
-99.03
-101.05
-96.57
-85.14
-67.61
-45.91
-22.46
0.38
20.84
37.90
51.15
60.53
66.21
68.45
67.75
64.79
60.47
55.70
51.28
47.62
44.80
42.56
40.53
38.43
36.18
33.91
31.72
29.60
27.27
24.25
20.09
14.58
7.87
0.48
-6.93
-13.79
-19.88
-25.46
-31.16
-37.83
-46.15
-56.38
-68.02
-79.84
-89.98
-96.35
-97.14
-91.30
-78.85
-60.91
-39.41
-16.68
5.10
24.29
39.94
51.74
59.82
64.45
66.03
65.04
62.14
58.15
53.98
50.34
47.59
45.64
44.03
42.30
40.17
37.72
35.26
33.11
31.37
29.78
27.83
24.91
20.61
14.85
7.94
0.43
-7.10
-14.21
-20.79
-27.02
-33.34
-40.29
-48.29
-57.49
-67.54
-77.46
-85.67
-90.34
-89.77
-82.99
-70.07
-52.21
-31.33
-9.66
10.83
28.72
43.15
53.73
60.37
63.22
62.70
59.50
54.63
49.22
44.28
40.48
37.93
36.30
35.00
33.51
31.62
29.44
27.28
25.34
23.56
21.57
18.79
14.82
9.56
3.33
-3.28
-9.64
-15.36
-20.47
-25.33
-30.54
-36.62
-43.91
-52.38
-61.57
-70.53
-77.92
-82.16
-81.73
-75.68
-63.94
-47.43
-27.92
-7.57
11.55
27.89
40.52
49.09
53.70
54.78
53.00
49.23
44.46
39.62
35.40
32.15
29.81
28.07
26.53
24.85
22.91
20.76
18.59
16.53
14.56
12.43
9.77
6.19
1.46
-4.34
-10.83
-17.51
-23.93
-29.92
-35.69
-41.76
-48.82
-57.35
-67.33
-77.99
-87.75
-94.60
-96.54
-92.21
-81.32
-64.81
-44.51
-22.71
-1.54
17.43
33.21
45.35
53.69
58.29
59.44
57.71
54.01
49.38
44.85
41.05
38.22
36.12
34.28
32.31
30.01
27.52
25.14
23.15
21.57
20.10
18.16
15.15
10.70
4.89
-1.84
-8.86
-15.62
-21.90
-27.81
-33.74
-40.20
-47.66
-56.37
-66.20
-76.41
-85.62
-91.95
-93.42
-88.59
-77.13
-59.96
-39.08
-16.98
4.10
22.59
37.70
49.21
57.21
61.84
63.33
62.10
58.88
54.61
50.27
46.56
43.76
41.67
39.87
37.93
35.70
33.27
30.92
28.83
26.95
24.97
22.37
18.75
13.91
8.02
1.50
-5.17
-11.60
-17.68
-23.58
-29.62
-36.21
-43.70
-52.28
-61.90
-72.10
-81.87
-89.69
-93.73
-92.33
-84.55
-70.53
-51.61
-29.92
-7.90
12.40
29.59
43.01
52.59
58.54
61.20
61.08
58.76
55.04
50.74
46.62
43.20
40.68
38.88
37.45
35.99
34.23
32.16
29.94
27.81
25.85
23.85
21.35
17.81
12.89
6.67
-0.38
-7.57
-14.32
-20.41
-26.05
-31.77
-38.16
-45.68
-54.44
-64.12
-73.92
-82.55
-88.36
-89.68
-85.27
-74.74
-58.79
-39.05
-17.66
3.27
22.03
37.58
49.40
57.35
61.57
62.43
60.55
56.78
52.09
47.39
43.28
40.03
37.55
35.57
33.78
31.99
30.19
28.46
26.83
25.19
23.29
20.72
17.18
12.53
6.96
0.88
-5.28
-11.20
-16.85
-22.48
-28.49
-35.31
-43.22
-52.17
-61.63
-70.52
-77.30
-80.28
-78.02
-69.88
-56.27
-38.64
-19.08
0.24
17.57
31.86
42.69
50.06
54.16
55.26
53.73
50.17
45.33
40.07
35.16
31.05
27.86
25.37
23.30
21.38
19.53
17.78
16.20
14.73
13.10
10.94
7.92
3.88
-1.03
-6.41
-11.84
-17.03
-21.97
-27.02
-32.70
-39.51
-47.67
-56.83
-66.05
-73.80
-78.39
-78.27
-72.58
-61.36
-45.63
-27.10
-7.75
10.59
26.51
39.14
48.06
53.25
54.97
53.85
50.68
46.37
41.73
37.31
33.33
29.77
26.53
23.59
21.01
18.92
17.32
16.02
14.65
12.77
10.00
6.16
1.30
-4.34
-10.40
-16.53
-22.49
-28.24
-34.00
-40.18
-47.31
-55.78
-65.48
-75.57
-84.50
-90.26
-90.96
-85.46
-73.70
-56.83
-36.80
-15.86
4.01
21.38
35.43
45.85
52.65
56.11
56.68
55.03
51.91
48.10
44.19
40.55
37.29
34.38
31.74
29.33
27.22
25.49
24.10
22.86
21.38
19.17
15.79
11.07
5.15
-1.55
-8.48
-15.22
-21.61
-27.79
-34.17
-41.30
-49.58
-59.13
-69.46
-79.48
-87.49
-91.56
-90.00
-81.95
-67.69
-48.66
-27.01
-5.10
15.13
32.42
46.17
56.23
62.65
65.65
65.62
63.19
59.25
54.73
50.39
46.60
43.36
40.43
37.55
34.67
31.95
29.55
27.54
25.73
23.74
21.10
17.50
12.83
7.25
1.06
-5.42
-11.91
-18.33
-24.71
-31.30
-38.46
-46.58
-55.87
-66.10
-76.39
-85.17
-90.48
-90.47
-84.03
-71.22
-53.25
-32.21
-10.40
10.17
28.11
42.68
53.57
60.79
64.50
65.10
63.21
59.69
55.40
51.09
47.18
43.79
40.82
38.08
35.50
33.14
31.13
29.57
28.41
27.32
25.78
23.25
19.37
14.13
7.92
1.28
-5.20
-11.26
-16.97
-22.69
-28.98
-36.32
-44.99
-54.81
-65.10
-74.53
-81.39
-83.90
-80.70
-71.34
-56.42
-37.55
-16.88
3.41
21.52
36.29
47.18
54.16
57.56
57.93
55.96
52.44
48.18
43.92
40.13
37.05
34.60
32.51
30.53
28.53
26.57
24.80
23.32
22.02
20.55
18.44
15.31
11.06
5.90
0.26
-5.39
-10.76
-15.90
-21.11
-26.89
-33.66
-41.65
-50.61
-59.75
-67.77
-73.04
-73.96
-69.45
-59.32
-44.37
-26.23
-6.98
11.37
27.26
39.74
48.41
53.32
54.80
53.41
49.87
45.08
39.90
35.04
30.93
27.61
24.90
22.50
20.25
18.12
16.21
14.63
13.27
11.78
9.68
6.57
2.30
-2.90
-8.57
-14.26
-19.69
-24.92
-30.31
-36.35
-43.49
-51.93
-61.37
-70.98
-79.33
-84.69
-85.35
-80.21
-69.08
-52.85
-33.29
-12.57
7.23
24.55
38.46
48.58
54.95
57.84
57.67
55.11
50.95
46.11
41.42
37.48
34.49
32.32
30.59
28.88
26.95
24.77
22.48
20.21
17.91
15.31
11.99
7.61
2.05
-4.44
-11.35
-18.08
-24.31
-30.06
-35.80
-42.24
-50.01
-59.39
-69.98
-80.72
-89.88
-95.43
-95.57
-89.26
-76.57
-58.73
-37.81
-16.11
4.34
22.15
36.58
47.38
54.64
58.62
59.82
58.87
56.56
53.59
50.51
47.59
44.87
42.28
39.75
37.24
34.74
32.29
29.90
27.56
25.18
22.55
19.34
15.22
9.96
3.62
-3.47
-10.77
-17.77
-24.25
-30.36
-36.63
-43.69
-52.07
-61.87
-72.55
-83.01
-91.63
-96.65
-96.55
-90.42
-78.26
-61.02
-40.42
-18.60
2.41
21.04
36.36
48.08
56.29
61.26
63.35
63.02
60.90
57.76
54.46
51.64
49.61
48.25
47.15
45.85
44.09
41.88
39.47
37.12
34.90
32.64
29.91
26.25
21.35
15.21
8.16
0.73
-6.54
-13.31
-19.50
-25.35
-31.26
-37.78
-45.44
-54.54
-64.96
-75.88
-85.69
-92.31
-93.65
-88.37
-76.32
-58.68
-37.55
-15.38
5.69
24.17
39.29
50.79
58.71
63.24
64.72
63.67
60.83
57.04
53.09
49.61
46.89
44.92
43.44
42.09
40.59
38.83
36.87
34.93
33.16
31.57
29.94
27.90
25.02
20.98
15.73
9.48
2.65
-4.29
-10.95
-17.14
-22.90
-28.51
-34.40
-41.04
-48.80
-57.67
-67.11
-75.96
-82.49
-84.88
-81.70
-72.42
-57.67
-39.05
-18.71
1.24
19.12
33.93
45.19
52.83
56.94
57.78
55.79
51.71
46.49
41.12
36.47
33.02
30.80
29.43
28.36
27.09
25.35
23.21
20.97
18.96
17.32
15.85
14.06
11.35
7.36
2.12
-3.91
-10.08
-15.79
-20.80
-25.30
-29.78
-34.84
-40.95
-48.30
-56.64
-65.35
-73.31
-79.10
-81.22
-78.45
-70.24
-56.91
-39.70
-20.44
-1.15
16.42
30.96
41.86
49.00
52.66
53.32
51.61
48.18
43.74
38.98
34.53
30.86
28.16
26.38
25.24
24.33
23.31
21.97
20.32
18.47
16.50
14.34
11.69
8.18
3.57
-2.12
-8.50
-15.01
-21.16
-26.72
-31.90
-37.17
-43.12
-50.22
-58.61
-67.97
-77.45
-85.69
-90.99
-91.72
-86.76
-75.90
-59.96
-40.58
-19.81
0.43
18.65
33.90
45.69
53.85
58.43
59.71
58.25
54.83
50.38
45.80
41.75
38.54
36.14
34.23
32.46
30.58
28.54
26.47
24.57
22.94
21.41
19.62
17.09
13.44
8.50
2.50
-4.14
-10.84
-17.19
-23.03
-28.49
-33.98
-40.05
-47.19
-55.65
-65.19
-74.92
-83.35
-88.64
-89.07
-83.54
-71.98
-55.41
-35.67
-14.92
4.86
22.28
36.54
47.30
54.57
58.52
59.49
58.04
54.95
51.09
47.24
43.90
41.21
38.97
36.90
34.74
32.51
30.40
28.68
27.48
26.63
25.61
23.80
20.64
15.93
9.87
3.06
-3.84
-10.26
-15.99
-21.18
-26.26
-31.76
-38.14
-45.60
-53.95
-62.53
-70.19
-75.48
-76.92
-73.42
-64.60
-51.00
-33.93
-15.19
3.38
20.20
34.18
44.72
51.64
55.12
55.64
53.87
50.58
46.50
42.17
37.93
33.95
30.34
27.22
24.69
22.82
21.54
20.65
19.84
18.83
17.34
15.19
12.22
8.40
3.81
-1.32
-6.68
-11.99
-17.14
-22.30
-27.88
-34.36
-42.01
-50.69
-59.62
-67.48
-72.66
-73.63
-69.37
-59.73
-45.46
-28.11
-9.61
8.15
23.66
35.96
44.66
49.81
51.75
51.06
48.41
44.54
40.16
35.83
31.88
28.46
25.59
23.19
21.24
19.72
18.56
17.57
16.46
14.86
12.50
9.21
5.06
0.22
-5.08
-10.59
-16.16
-21.75
-27.50
-33.69
-40.62
-48.44
-56.82
-64.80
-70.87
-73.29
-70.61
-62.22
-48.52
-30.90
-11.29
8.24
25.94
40.58
51.49
58.46
61.67
61.64
59.07
54.79
49.61
44.17
38.96
34.25
30.15
26.68
23.80
21.36
19.16
16.99
14.62
11.95
8.90
5.44
1.57
-2.72
-7.45
-12.56
-17.95
-23.61
-29.66
-36.40
-44.09
-52.64
-61.29
-68.59
-72.66
-71.86
-65.35
-53.50
-37.72
-20.05
-2.50
13.34
26.51
36.59
43.43
47.14
47.97
46.38
43.02
38.56
33.64
28.71
24.09
20.02
16.68
14.18
12.55
11.61
10.96
10.13
8.62
6.10
2.46
-2.19
-7.56
-13.32
-19.22
-25.25
-31.61
-38.62
-46.59
-55.48
-64.72
-73.13
-79.13
-81.01
-77.50
-68.11
-53.39
-34.85
-14.63
4.97
22.04
35.38
44.59
49.95
52.11
51.80
49.67
46.21
41.76
36.71
31.45
26.38
21.86
18.06
14.97
12.44
10.22
8.06
5.75
3.15
0.14
-3.40
-7.55
-12.38
-17.93
-24.20
-31.24
-39.15
-48.01
-57.72
-67.77
-77.14
-84.28
-87.49
-85.38
-77.32
-63.69
-45.86
-25.75
-5.38
13.52
29.78
42.73
52.15
58.06
60.69
60.44
57.89
53.77
48.85
43.79
39.05
34.80
31.07
27.77
24.90
22.50
20.63
19.15
17.76
15.98
13.32
9.53
4.60
-1.27
-7.80
-14.80
-22.28
-30.39
-39.35
-49.32
-60.34
-72.16
-84.14
-95.08
-103.27
-106.83
-104.17
-94.52
-78.32
-57.13
-33.22
-9.01
13.49
32.93
48.67
60.59
68.91
74.01
76.35
76.45
74.88
72.19
68.88
65.36
61.90
58.66
55.75
53.24
51.23
49.75
48.76
48.01
47.03
45.31
42.47
38.42
33.41
27.86
22.19
16.61
11.06
5.23
-1.21
-8.52
-16.71
-25.57
-34.70
-43.63
-51.98
-59.62
-66.80
-74.07
-82.14
-91.49
-102.03
-112.84
-122.15
-127.72
-127.45
-119.98
-105.21
-84.31
-59.38
-32.90
-7.11
16.33
36.46
52.86
65.44
74.29
79.66
81.99
81.94
80.31
77.91
75.36
73.06
71.11
69.40
67.78
66.09
64.31
62.53
60.84
59.31
57.87
56.28
54.20
51.28
47.23
41.98
35.72
28.86
21.91
15.27
9.10
3.22
-2.73
-9.14
-16.19
-23.77
-31.48
-38.87
-45.64
-51.79
-57.61
-63.62
-70.36
-78.24
-87.42
-97.69
-108.30
-117.96
-124.86
-127.01
-122.68
-111.01
-92.35
-68.32
-41.39
-14.24
10.89
32.57
50.28
64.05
74.15
80.86
84.45
85.27
83.87
81.03
77.55
74.10
71.06
68.49
66.26
64.22
62.26
60.39
58.65
57.06
55.50
53.79
51.66
48.87
45.25
40.80
35.63
29.97
24.09
18.24
12.55
7.02
1.49
-4.27
-10.49
-17.22
-24.33
-31.51
-38.45
-44.93
-50.97
-56.85
-63.00
-69.91
-77.96
-87.22
-97.36
-107.51
-116.27
-121.85
-122.46
-116.72
-104.11
-85.21
-61.64
-35.61
-9.51
14.67
35.57
52.48
65.22
73.90
78.85
80.55
79.71
77.13
73.69
70.09
66.74
63.72
60.90
58.06
55.13
52.22
49.59
47.51
46.04
45.00
43.95
42.38
39.86
36.22
31.61
26.39
20.96
15.61
10.42
5.34
0.19
-5.20
-10.96
-17.13
-23.67
-30.42
-37.20
-43.82
-50.19
-56.48
-63.04
-70.39
-78.92
-88.56
-98.58
-107.50
-113.39
-114.30
-108.85
-96.64
-78.40
-55.84
-31.15
-6.57
16.09
35.56
51.19
62.76
70.37
74.32
75.15
73.55
70.37
66.44
62.46
58.81
55.59
52.70
49.97
47.34
44.85
42.62
40.66
38.87
36.99
34.70
31.74
28.02
23.63
18.82
13.87
9.00
4.25
-0.51
-5.51
-10.94
-16.85
-23.16
-29.64
-36.11
-42.50
-48.89
-55.51
-62.60
-70.37
-78.82
-87.64
-96.10
-103.02
-106.92
-106.23
-99.82
-87.28
-69.23
-47.22
-23.38
0.11
21.40
39.31
53.25
63.09
69.02
71.44
70.96
68.35
64.49
60.18
55.94
51.97
48.20
44.53
40.89
37.41
34.27
31.62
29.43
27.51
25.57
23.36
20.78
17.77
14.33
10.43
6.00
0.99
-4.54
-10.43
-16.42
-22.27
-27.88
-33.31
-38.83
-44.81
-51.61
-59.47
-68.38
-77.95
-87.34
-95.30
-100.30
-100.89
-96.02
-85.31
-69.24
-49.11
-26.73
-4.13
16.85
34.83
49.06
59.32
65.86
69.12
69.68
68.08
64.91
60.78
56.23
51.76
47.69
44.14
41.00
38.09
35.24
32.38
29.55
26.85
24.32
21.87
19.21
16.01
11.99
7.01
1.19
-5.18
-11.71
-18.07
-24.07
-29.72
-35.20
-40.84
-47.07
-54.24
-62.59
-71.99
-81.82
-90.92
-97.68
-100.38
-97.62
-88.77
-74.10
-54.82
-32.74
-9.96
11.58
30.30
45.17
55.74
62.05
64.53
63.90
61.04
56.86
52.27
48.00
44.45
41.73
39.61
37.72
35.73
33.49
31.08
28.68
26.43
24.29
22.07
19.46
16.24
12.30
7.71
2.58
-2.91
-8.64
-14.49
-20.38
-26.30
-32.38
-38.87
-46.14
-54.39
-63.47
-72.65
-80.67
-85.92
-86.88
-82.51
-72.52
-57.49
-38.66
-17.69
3.63
23.63
40.96
54.68
64.31
69.77
71.44
69.98
66.30
61.36
56.00
50.86
46.23
42.17
38.57
35.23
32.07
29.05
26.20
23.53
21.02
18.53
15.85
12.74
9.00
4.56
-0.45
-5.78
-11.12
-16.31
-21.37
-26.58
-32.37
-39.14
-47.12
-56.15
-65.58
-74.25
-80.65
-83.19
-80.62
-72.36
-58.68
-40.73
-20.23
0.86
20.69
37.79
51.17
60.38
65.45
66.78
65.12
61.37
56.42
51.03
45.73
40.77
36.20
31.98
28.11
24.61
21.60
19.09
17.02
15.16
13.23
10.90
7.91
4.14
-0.41
-5.56
-11.06
-16.61
-22.03
-27.37
-32.94
-39.21
-46.52
-54.82
-63.46
-71.15
-76.23
-77.12
-72.75
-62.91
-48.27
-30.22
-10.51
9.10
27.04
42.08
53.38
60.54
63.57
62.95
59.49
54.22
48.14
42.02
36.33
31.29
26.91
23.13
19.90
17.18
14.89
12.91
10.98
8.80
6.03
2.42
-2.04
-7.16
-12.61
-18.05
-23.34
-28.60
-34.20
-40.63
-48.19
-56.76
-65.57
-73.22
-77.95
-78.04
-72.38
-60.84
-44.39
-24.90
-4.63
14.32
30.42
42.83
51.31
56.03
57.34
55.72
51.71
46.01
39.38
32.60
26.33
21.01
16.78
13.54
11.00
8.80
6.56
4.04
1.08
-2.35
-6.17
-10.29
-14.63
-19.17
-23.97
-29.23
-35.22
-42.26
-50.50
-59.75
-69.19
-77.43
-82.60
-82.85
-76.90
-64.51
-46.64
-25.27
-2.87
18.22
36.29
50.41
60.34
66.25
68.47
67.37
63.41
57.24
49.71
41.81
34.41
28.08
22.95
18.80
15.20
11.77
8.24
4.55
0.72
-3.19
-7.17
-11.29
-15.66
-20.44
-25.82
-32.04
-39.38
-48.06
-58.09
-68.99
-79.66
-88.37
-93.08
-91.96
-83.95
-69.18
-48.98
-25.58
-1.53
20.86
39.97
54.90
65.40
71.62
73.91
72.73
68.66
62.44
54.94
47.11
39.80
33.59
28.61
24.64
21.19
17.77
14.05
9.97
5.58
1.02
-3.71
-8.72
-14.21
-20.38
-27.39
-35.39
-44.57
-55.03
-66.58
-78.46
-89.13
-96.45
-98.17
-92.62
-79.36
-59.37
-34.90
-8.79
16.19
37.97
55.40
68.15
76.42
80.60
81.18
78.63
73.55
66.72
59.07
51.52
44.77
39.18
34.72
31.07
27.83
24.61
21.15
17.25
12.80
7.72
1.99
-4.32
-11.08
-18.19
-25.73
-34.00
-43.49
-54.60
-67.32
-80.96
-93.92
-103.98
-108.75
-106.31
-95.78
-77.64
-53.59
-26.17
1.81
27.85
50.10
67.51
79.74
87.03
90.00
89.47
86.36
81.58
75.91
69.96
64.10
58.54
53.37
48.70
44.62
41.18
38.25
35.46
32.26
28.10
22.67
16.02
8.53
0.66
-7.21
-15.03
-23.03
-31.67
-41.42
-52.62
-65.26
-78.76
-91.85
-102.56
-108.54
-107.67
-98.66
-81.59
-57.97
-30.39
-1.81
25.10
48.42
67.20
81.21
90.72
96.17
98.09
96.97
93.48
88.42
82.77
77.48
73.15
69.95
67.55
65.34
62.84
59.82
56.41
52.82
49.11
45.02
40.03
33.66
25.70
16.36
6.25
-3.92
-13.53
-22.33
-30.39
-38.13
-46.13
-55.03
-65.35
-77.29
-90.47
-103.75
-115.23
-122.51
-123.29
-115.98
-100.33
-77.55
-50.08
-20.93
7.05
31.76
52.04
67.60
78.68
85.74
89.27
89.80
87.90
84.32
79.88
75.32
71.13
67.46
64.20
61.13
58.12
55.20
52.46
49.95
47.57
45.03
42.01
38.24
33.59
28.13
21.95
15.18
7.88
0.06
-8.20
-16.69
-25.11
-33.15
-40.63
-47.68
-54.72
-62.38
-71.29
-81.75
-93.43
-105.17
-115.09
-120.85
-120.32
-112.14
-96.29
-74.10
-48.04
-20.98
4.48
26.56
