1523010504.00
64.000000
-0.00
-0.00
-0.00
-0.00
-0.00
-0.00
-0.00
-0.00
-0.00
-0.00
0.00
0.01
0.01
-0.00
-0.03
-0.05
-0.05
0.00
0.13
0.36
0.66
1.01
1.37
1.72
2.06
2.40
2.79
3.24
3.80
4.42
5.06
5.66
6.20
6.68
7.15
7.68
8.31
9.14
10.09
11.04
11.88
12.56
13.14
13.76
14.65
15.96
17.91
20.32
22.90
25.38
27.58
29.57
31.68
34.32
37.81
42.54
48.15
54.10
59.83
64.97
69.58
74.14
79.34
85.71
93.76
103.00
112.62
121.73
129.77
136.75
143.30
150.75
157.77
166.64
177.95
191.79
206.97
220.57
228.25
225.36
208.53
176.87
132.76
80.05
23.07
-34.94
-92.44
-149.16
-205.23
-260.37
-313.74
-363.87
-409.83
-450.91
-486.50
-515.74
-537.23
-549.22
-549.96
-538.37
-514.21
-478.67
-433.88
-382.45
-327.02
-269.84
-212.63
-156.66
-102.95
-52.37
-5.90
35.58
71.43
101.35
125.50
144.38
158.69
169.15
176.37
180.75
182.57
182.07
179.51
175.23
169.65
163.18
156.15
148.81
141.30
133.69
126.02
118.33
110.69
103.16
95.80
88.68
81.83
75.25
68.95
62.95
57.25
51.86
46.78
42.03
37.59
33.45
29.61
26.07
22.81
19.83
17.11
14.67
12.48
10.54
8.83
7.35
6.07
4.97
4.05
3.27
2.62
2.09
1.65
1.30
1.01
0.80
0.62
0.49
0.40
0.33
0.29
0.27
0.26
0.27
0.29
0.31
0.35
0.38
0.42
0.46
0.51
0.56
0.61
0.66
0.72
0.78
0.84
0.91
0.99
1.08
1.17
1.28
1.40
1.53
1.68
1.85
2.04
2.25
2.48
2.73
3.01
3.32
3.67
4.04
4.45
4.89
5.37
5.89
6.45
7.04
7.69
8.37
9.10
9.88
10.70
11.57
12.48
13.44
14.46
15.54
16.69
17.89
19.16
20.45
21.74
22.95
24.01
24.79
25.20
25.09
24.35
22.92
20.74
17.85
14.32
10.23
5.80
1.22
-3.29
-7.52
-11.27
-14.39
-16.81
-18.46
-19.38
-19.60
-19.24
-18.41
-17.24
-15.82
-14.25
-12.56
-10.80
-8.99
-7.14
-5.30
-3.49
-1.74
0.01
1.79
3.64
5.62
7.77
10.10
12.50
14.90
17.28
19.64
22.05
24.59
27.30
30.27
33.57
36.94
40.25
43.44
46.57
49.74
53.10
56.79
60.91
65.52
70.15
74.52
78.51
82.20
85.83
89.64
93.84
98.46
103.38
107.71
110.78
112.18
111.76
109.54
105.39
98.68
87.78
74.96
60.22
43.33
24.27
3.39
-18.69
-41.19
-63.45
-85.01
-105.64
-126.05
-147.07
-169.81
-195.44
-224.55
-256.28
-287.75
-314.38
-331.12
-334.90
-325.40
-305.45
-279.98
-254.03
-231.08
-212.25
-196.73
-182.92
-169.81
-156.94
-144.14
-130.96
-116.47
-99.44
-78.75
-53.70
-23.82
11.17
52.02
99.73
154.83
216.22
280.30
340.97
390.89
423.49
434.89
424.86
396.25
353.49
300.90
242.00
179.73
117.22
58.27
6.89
-33.92
-63.42
-83.42
-97.52
-109.57
-122.25
-136.44
-151.34
-165.26
-176.23
-182.47
-182.68
-176.21
-163.31
-145.29
-124.38
-103.09
-83.62
-67.22
-54.08
-43.63
-34.99
-27.46
-20.68
-14.52
-8.94
-3.82
0.97
5.49
9.65
13.23
15.99
17.81
18.80
19.31
19.80
20.66
22.04
23.82
25.55
26.69
26.78
25.65
23.48
20.77
18.13
16.02
14.54
13.43
12.17
10.22
7.28
3.43
-0.93
-5.22
-8.92
-11.79
-13.95
-15.80
-17.94
-20.95
-25.30
-31.07
-37.87
-44.70
-50.09
-52.34
-50.12
-42.92
-31.43
-17.36
-2.95
9.77
19.59
26.32
30.58
33.31
35.30
36.93
38.19
38.87
38.84
38.16
37.09
36.02
35.23
34.83
34.66
34.38
33.65
32.25
30.24
27.91
25.62
23.61
21.83
19.93
17.43
13.94
9.40
4.13
-1.31
-6.38
-10.71
-14.28
-17.33
-20.25
-23.49
-27.48
-32.55
-38.88
-46.22
-53.74
-59.94
-63.00
-61.34
-54.28
-42.45
-27.68
-12.50
0.80
10.83
17.48
21.61
24.53
27.32
30.49
33.94
37.18
39.69
41.12
41.46
40.85
39.60
38.07
36.57
35.39
34.66
34.38
34.34
34.16
33.45
31.87
29.28
25.71
21.34
16.46
11.35
6.28
1.46
-2.95
-6.87
-10.30
-13.34
-16.13
-18.90
-21.94
-25.59
-30.22
-36.09
-43.17
-50.92
-58.21
-63.45
-65.04
-61.86
-53.78
-41.78
-27.63
-13.33
-0.48
10.11
18.42
24.90
30.19
34.74
38.80
42.44
45.70
48.57
51.04
53.05
54.52
55.34
55.45
54.81
53.53
51.72
49.53
47.11
44.56
41.99
39.47
37.06
34.79
32.62
30.38
27.81
24.63
20.59
15.65
10.01
4.08
-1.71
-7.05
-11.89
-16.36
-20.64
-24.77
-28.61
-31.87
-34.34
-36.03
-37.31
-38.79
-41.09
-44.55
-49.11
-54.25
-59.25
-63.48
-66.74
-69.42
-72.33
-76.38
-82.18
-89.76
-98.51
-107.45
-115.56
-122.06
-126.56
-129.11
-130.05
-129.98
-129.57
-129.26
-128.96
-127.74
-123.87
-115.24
-100.14
-78.05
-49.91
-17.80
15.84
49.08
81.00
111.71
141.79
171.58
200.73
228.19
252.58
272.83
288.55
300.05
308.12
313.56
316.91
318.44
318.24
316.33
312.61
306.66
297.65
284.43
265.75
240.73
209.14
171.67
129.98
86.58
44.67
7.52
-22.28
-43.66
-57.51
-66.40
-73.68
-82.25
-93.60
-107.62
-123.06
-138.47
-152.82
-165.64
-176.70
-185.52
-191.21
-192.73
-189.37
-181.32
-169.60
-155.77
-141.26
-126.97
-113.19
-99.88
-87.10
-75.20
-64.77
-56.36
-50.12
-45.72
-42.53
-39.83
-37.08
-34.06
-30.80
-27.52
-24.48
-21.86
-19.73
-18.06
-16.75
-15.72
-15.00
-14.71
-15.06
-16.21
-18.16
-20.70
-23.45
-25.99
-27.98
-29.36
-30.22
-30.88
-31.69
-32.95
-34.82
-37.33
-40.31
-43.48
-46.56
-49.36
-51.97
-54.73
-58.23
-63.00
-69.27
-76.62
-83.97
-89.70
-92.13
-90.04
-83.19
-72.51
-59.88
-47.57
-37.48
-30.59
-26.79
-25.13
-24.43
-23.86
-23.31
-23.27
-24.39
-26.99
-30.84
-35.33
-39.76
-43.75
-47.41
-51.02
-54.80
-58.57
-61.80
-63.82
-64.16
-62.56
-58.67
-51.64
-39.93
-21.69
4.40
38.22
77.90
120.23
161.67
199.40
231.94
259.12
281.50
299.79
314.59
326.31
335.22
341.26
343.81
341.49
332.49
315.14
288.71
253.84
212.34
166.77
119.59
72.61
26.75
-17.77
-60.84
-101.71
-138.54
-168.41
-188.21
-195.89
-191.55
-177.80
-158.98
-139.66
-123.10
-110.46
-101.10
-93.61
-86.89
-80.73
-75.51
-71.65
-68.98
-66.70
-63.79
-59.58
-54.11
-48.09
-42.55
-38.29
-35.53
-33.85
-32.45
-30.59
-27.98
-24.90
-22.05
-20.19
-19.74
-20.59
-22.13
-23.58
-24.38
-24.40
-24.04
-24.03
-25.01
-27.21
-30.38
-33.86
-36.96
-39.24
-40.78
-42.08
-43.85
-46.74
-51.08
-56.67
-62.76
-67.99
-70.77
-69.63
-63.77
-53.40
-39.82
-25.03
-11.11
0.40
8.92
14.78
18.89
22.21
25.39
28.60
31.61
34.11
35.86
36.83
37.22
37.28
37.16
36.92
36.46
35.72
34.77
33.80
33.02
32.51
32.14
31.64
30.71
29.14
26.92
24.14
20.91
17.29
13.29
8.91
4.29
-0.37
-4.78
-8.77
-12.40
-15.90
-19.67
-24.11
-29.48
-35.76
-42.67
-49.68
-56.28
-62.17
-67.54
-73.02
-79.48
-87.63
-97.40
-107.71
-116.58
-121.67
-121.26
-114.88
-103.65
-89.83
-76.18
-65.05
-57.88
-54.94
-55.28
-56.83
-56.68
-51.80
-39.86
-20.29
5.30
33.48
60.17
82.04
97.61
107.29
112.82
116.16
118.72
121.16
123.74
126.60
129.97
133.96
138.43
142.86
146.62
149.28
150.88
151.96
153.25
155.40
158.55
162.42
166.35
169.61
171.60
172.05
171.04
168.89
165.99
162.51
158.33
153.02
146.14
137.64
128.16
119.11
112.19
108.82
109.37
112.91
117.42
120.52
120.36
116.23
108.60
98.77
88.20
78.01
68.75
60.53
53.13
46.12
38.88
30.68
20.83
9.01
-4.55
-18.99
-33.24
-46.28
-57.58
-67.10
-75.19
-82.26
-88.53
-94.05
-98.70
-102.38
-105.11
-107.04
-108.39
-109.31
-109.81
-109.62
-108.28
-105.28
-100.22
-92.90
-83.36
-71.85
-58.84
-45.14
-31.81
-20.11
-11.18
-5.77
-4.02
-5.65
-10.27
-17.60
-27.55
-39.92
-53.90
-68.09
-80.82
-90.90
-98.24
-104.01
-109.99
-117.80
-128.07
-140.38
-153.71
-167.11
-180.35
-193.86
-208.32
-224.02
-240.68
-257.45
-273.44
-287.98
-300.59
-310.69
-317.19
-318.57
-313.30
-300.58
-280.77
-255.41
-226.72
-196.60
-166.08
-135.09
-102.90
-68.82
-32.86
4.27
41.28
76.87
109.98
139.88
166.11
188.24
205.92
218.97
227.56
232.23
233.76
232.94
230.35
226.35
221.17
215.03
208.13
200.60
192.45
183.76
174.89
166.60
159.82
155.13
152.04
148.73
142.32
129.58
107.97
76.43
35.38
-13.46
-67.69
-124.47
-180.48
-231.86
-274.41
-304.42
-319.53
-319.60
-306.53
-283.57
-254.06
-220.52
-184.45
-146.81
-108.69
-71.69
-37.79
-8.72
14.56
32.09
44.59
53.00
58.01
59.89
58.70
54.62
48.26
40.77
33.58
27.97
24.48
22.68
21.38
19.09
14.74
8.05
-0.43
-9.76
-19.13
-28.20
-37.21
-46.75
-57.44
-69.77
-83.75
-98.89
-113.89
-126.62
-134.32
-134.17
-124.18
-104.04
-75.47
-41.85
-7.33
24.50
51.49
73.28
90.92
106.04
120.00
133.31
145.66
156.27
164.37
169.56
171.94
172.01
170.32
167.36
163.33
158.27
152.11
144.82
136.54
127.53
118.08
108.41
98.64
88.81
78.94
69.15
59.59
50.26
40.86
30.69
18.92
5.04
-10.53
-26.25
-39.62
-47.99
-49.54
-44.04
-32.95
-18.91
-4.74
7.34
16.29
22.06
25.26
26.66
26.87
26.39
25.57
24.73
23.98
23.22
22.13
20.42
18.04
15.34
12.95
11.51
11.33
12.17
13.38
14.04
13.34
10.72
6.10
-0.19
-7.46
-14.90
-21.77
-27.67
-32.57
-36.93
-41.48
-46.96
-53.89
-62.16
-70.95
-78.68
-83.41
-83.35
-77.54
-66.24
-50.93
-33.87
-17.36
-3.11
8.08
16.23
21.74
25.13
26.71
26.73
25.47
23.41
21.18
19.50
18.96
19.89
22.29
25.84
29.99
34.09
37.45
39.38
39.28
36.69
31.44
23.78
14.35
4.11
-5.93
-15.05
-23.05
-30.30
-37.66
-46.11
-56.31
-68.20
-80.61
-91.36
-97.68
-97.03
-88.04
-71.12
-48.56
-23.87
-0.63
18.48
32.42
41.61
47.35
51.09
53.75
55.67
56.75
56.79
55.68
53.56
50.70
47.42
44.09
41.08
38.71
37.19
36.52
36.35
36.11
35.10
32.80
29.01
23.94
18.10
12.08
6.27
0.67
-5.08
-11.63
-19.64
-29.49
-40.97
-53.12
-64.18
-71.96
-74.36
-70.14
-59.40
-43.70
-25.58
-7.74
7.82
20.26
29.80
37.29
43.56
48.97
53.37
56.38
57.67
57.28
55.59
53.15
50.43
47.67
44.80
41.66
38.19
34.55
31.11
28.20
25.93
23.95
21.55
17.93
12.58
5.52
-2.64
-10.90
-18.30
-24.26
-28.80
-32.47
-36.10
-40.56
-46.49
-54.09
-63.04
-72.35
-80.41
-85.19
-84.81
-78.19
-65.56
-48.50
-29.51
-11.08
5.06
18.33
29.11
38.13
45.92
52.51
57.60
60.89
62.40
62.49
61.69
60.44
58.89
56.97
54.54
51.61
48.38
45.17
42.20
39.45
36.65
33.41
29.44
24.74
19.61
14.49
9.74
5.42
1.29
-3.04
-7.86
-13.16
-18.65
-23.85
-28.35
-31.99
-35.00
-37.89
-41.39
-46.21
-52.84
-61.23
-70.59
-79.25
-84.99
-85.65
-79.83
-67.58
-50.43
-31.01
-12.14
4.00
16.42
25.30
31.61
36.42
40.46
43.97
46.78
48.59
49.21
48.63
47.03
44.62
41.69
38.50
35.35
32.57
30.43
29.02
28.19
27.52
26.43
24.41
21.22
16.99
12.15
7.30
2.90
-0.81
-3.95
-6.87
-9.94
-13.36
-17.07
-20.78
-24.16
-27.02
-29.42
-31.69
-34.39
-38.12
-43.30
-49.91
-57.25
-63.88
-67.85
-67.21
-60.73
-48.39
-31.54
-12.48
6.20
22.40
34.96
43.74
49.28
52.46
54.18
55.12
55.81
56.52
57.33
58.10
58.52
58.19
56.79
54.21
50.64
46.59
42.83
40.11
38.92
39.24
40.44
41.46
41.08
38.30
32.67
24.26
13.66
1.61
-11.14
-23.95
-36.23
-47.37
-56.61
-63.17
-66.40
-66.08
-62.52
-56.71
-50.03
-44.05
-40.22
-39.54
-42.26
-47.69
-54.15
-59.33
-60.82
-57.00
-47.61
-33.90
-18.17
-2.93
9.90
19.45
25.79
29.58
31.50
32.06
31.53
30.17
28.30
26.37
24.80
23.86
23.65
24.05
24.86
25.86
26.90
27.79
28.23
27.81
26.03
22.54
17.30
10.72
3.54
-3.40
-9.47
-14.41
-18.32
-21.51
-24.24
-26.66
-28.77
-30.57
-32.10
-33.48
-34.94
-36.79
-39.37
-43.06
-48.16
-54.58
-61.71
-68.15
-71.98
-71.32
-65.00
-53.25
-37.75
-21.16
-6.15
5.43
13.03
17.23
19.17
19.91
20.12
20.10
20.11
20.53
21.86
24.44
28.10
32.15
35.57
37.42
37.23
35.12
31.65
27.52
23.25
19.11
15.10
11.15
7.23
3.39
-0.25
-3.59
-6.56
-9.20
-11.71
-14.39
-17.68
-21.93
-27.24
-33.33
-39.59
-45.34
-50.04
-53.55
-56.18
-58.51
-61.27
-65.01
-69.96
-75.67
-80.91
-83.82
-82.36
-75.06
-61.77
-43.89
-24.11
-5.49
9.47
19.56
24.94
26.68
26.17
24.52
22.37
19.97
17.43
14.86
12.47
10.41
8.66
6.93
4.71
1.49
-3.01
-8.60
-14.57
-19.96
-23.86
-25.82
-26.07
-25.43
-24.91
-25.32
-26.90
-29.26
-31.69
-33.51
-34.44
-34.67
-34.73
-35.13
-36.07
-37.35
-38.42
-38.44
-36.41
-31.14
-21.31
-5.92
15.17
40.78
68.28
94.19
115.13
128.83
134.66
133.60
127.47
118.27
107.53
96.22
84.93
74.09
64.12
55.35
47.93
41.79
36.67
32.25
28.25
24.51
20.95
17.61
14.56
11.83
9.37
7.06
4.83
2.72
0.92
-0.36
-1.17
-2.06
-4.10
-8.59
-16.36
-27.23
-39.70
-51.31
-59.47
-62.50
-60.27
-54.19
-46.55
-39.58
-34.61
-31.77
-30.35
-29.37
-28.27
-27.14
-26.57
-27.09
-28.90
-31.62
-34.53
-36.83
-37.95
-37.56
-35.59
-32.08
-27.17
-21.08
-14.13
-6.55
1.56
10.22
19.49
29.21
38.96
48.06
55.80
61.71
65.72
68.15
69.63
71.03
73.31
77.34
83.61
91.93
101.24
109.85
115.88
117.95
115.56
109.07
99.33
87.20
73.22
57.72
41.06
23.90
7.23
-7.82
-20.47
-30.47
-38.21
-44.46
-50.09
-55.81
-61.98
-68.69
-75.78
-83.03
-90.22
-97.17
-103.78
-109.99
-115.86
-121.58
-127.39
-133.33
-138.95
-143.03
-143.73
-139.12
-128.02
-110.72
-89.12
-66.26
-45.30
-28.54
-16.78
-9.36
-4.73
-1.13
2.83
7.82
13.81
20.24
26.35
31.51
35.49
38.56
41.39
44.81
49.49
55.74
63.36
71.74
79.94
86.85
91.42
92.89
90.91
85.57
77.26
66.51
53.76
39.38
23.88
8.24
-5.97
-16.77
-22.37
-21.89
-15.81
-5.96
5.05
14.77
21.62
25.31
26.60
26.81
27.04
27.80
28.93
29.82
29.75
28.22
24.93
19.82
13.03
4.79
-4.50
-14.34
-24.26
-33.84
-42.91
-51.47
-59.68
-67.75
-75.86
-84.11
-92.55
-101.18
-109.94
-118.72
-127.13
-134.26
-138.32
-136.77
-127.00
-107.39
-78.26
-42.09
-2.86
35.16
68.59
95.52
115.31
127.99
133.89
133.53
128.01
119.08
108.91
99.48
91.90
86.22
81.68
77.31
72.37
66.60
60.12
53.34
46.68
40.45
34.76
29.54
24.59
19.68
14.66
9.51
4.35
-0.63
-5.24
-9.39
-13.11
-16.52
-19.71
-22.64
-25.06
-26.52
-26.39
-24.10
-19.39
-12.45
-4.05
4.59
12.09
17.34
19.80
19.64
17.57
14.58
11.49
8.79
6.57
4.75
3.21
1.97
1.13
0.77
0.85
1.16
1.46
1.59
1.53
1.42
1.38
1.39
1.35
1.07
0.43
-0.59
-1.92
-3.51
-5.39
-7.65
-10.39
-13.53
-16.83
-19.84
-22.02
-22.85
-21.91
-18.93
-13.92
-7.16
0.71
8.78
16.06
21.69
25.19
26.49
25.93
24.07
21.48
18.58
15.65
12.85
10.32
8.20
6.60
5.52
4.82
4.26
3.54
2.45
0.93
-0.92
-2.94
-5.03
-7.11
-9.18
-11.19
-13.07
-14.70
-16.05
-17.17
-18.24
-19.42
-20.80
-22.23
-23.32
-23.54
-22.29
-19.16
-14.11
-7.53
-0.25
6.65
12.19
15.74
17.18
16.85
15.32
13.19
10.85
8.47
6.12
3.82
1.65
-0.32
-2.03
-3.48
-4.75
-5.91
-7.06
-8.27
-9.59
-11.06
-12.63
-14.18
-15.54
-16.59
-17.32
-17.92
-18.66
-19.79
-21.45
-23.53
-25.76
-27.69
-28.79
-28.49
-26.25
-21.70
-14.85
-6.19
3.32
12.49
20.18
25.63
28.62
29.36
28.37
26.26
23.52
20.53
17.53
14.66
12.02
9.65
7.54
5.62
3.74
1.72
-0.54
-3.03
-5.52
-7.68
-9.12
-9.65
-9.30
-8.42
-7.51
-7.11
-7.63
-9.28
-12.03
-15.62
-19.61
-23.35
-26.06
-26.96
-25.38
-21.01
-14.06
-5.30
4.12
12.92
20.02
24.83
27.20
27.41
25.96
23.41
20.30
17.07
14.06
11.49
9.42
7.79
6.46
5.33
4.39
3.65
3.18
2.85
2.44
1.62
0.11
-2.20
-5.21
-8.67
-12.20
-15.42
-17.99
-19.71
-20.59
-20.95
-21.35
-22.41
-24.56
-27.81
-31.58
-34.87
-36.50
-35.38
-30.92
-23.17
-12.86
-1.30
10.00
19.64
26.75
31.15
33.22
33.61
32.86
31.24
28.86
25.83
22.48
19.29
16.69
14.83
13.44
12.01
10.08
7.55
4.71
2.05
-0.00
-1.37
-2.32
-3.26
-4.57
-6.37
-8.58
-10.99
-13.34
-15.43
-17.06
-18.15
-18.79
-19.27
-20.02
-21.47
-23.78
-26.75
-29.81
-32.15
-32.98
-31.64
-27.78
-21.46
-13.20
-3.93
5.17
13.00
18.78
22.31
23.85
23.93
23.10
21.75
20.07
18.14
16.03
13.86
11.74
9.85
8.30
7.09
6.12
5.16
3.97
2.46
0.68
-1.14
-2.78
-4.13
-5.30
-6.48
-7.90
-9.67
-11.70
-13.74
-15.53
-16.82
-17.54
-17.77
-17.72
-17.72
-18.04
-18.89
-20.27
-21.95
-23.53
-24.45
-24.13
-22.00
-17.76
-11.44
-3.61
4.77
12.52
18.65
22.62
24.44
24.50
23.37
21.52
19.24
16.78
14.33
12.16
10.49
9.34
8.55
7.79
6.77
5.37
3.70
2.04
0.66
-0.33
-0.94
-1.32
-1.61
-1.93
-2.24
-2.53
-2.76
-3.01
-3.42
-4.27
-5.77
-8.12
-11.31
-15.11
-19.10
-22.68
-25.20
-26.00
-24.59
-20.76
-14.70
-7.00
1.40
9.41
16.07
20.81
23.53
24.56
24.44
23.66
22.49
21.01
19.18
17.00
14.58
12.16
9.96
8.10
6.54
5.12
3.63
1.92
-0.06
-2.27
-4.67
-7.17
-9.69
-12.10
-14.28
-16.11
-17.59
-18.88
-20.25
-22.00
-24.30
-27.06
-29.86
-32.00
-32.64
-31.01
-26.68
-19.71
-10.77
-0.96
8.45
16.33
22.05
25.48
26.93
26.92
25.90
24.19
21.97
19.37
16.60
13.89
11.51
9.63
8.24
7.19
6.21
5.02
3.45
1.45
-0.88
-3.32
-5.68
-7.81
-9.68
-11.40
-13.17
-15.17
-17.56
-20.40
-23.67
-27.25
-30.87
-34.06
-36.12
-36.19
-33.50
-27.66
-18.96
-8.37
2.62
12.50
20.17
25.22
27.97
29.08
29.18
28.57
27.23
24.98
21.78
17.93
14.03
10.74
8.55
7.51
7.27
7.23
6.77
5.49
3.31
0.47
-2.62
-5.58
-8.17
-10.40
-12.43
-14.58
-17.15
-20.43
-24.51
-29.32
-34.41
-38.93
-41.68
-41.40
-37.18
-28.84
-17.17
-3.75
9.48
20.88
29.46
35.10
38.27
39.69
39.95
39.33
37.90
35.64
32.65
29.23
25.77
22.70
20.24
18.39
16.91
15.48
13.81
11.78
9.46
7.03
4.69
2.50
0.35
-2.01
-4.78
-8.04
-11.63
-15.19
-18.30
-20.70
-22.38
-23.62
-24.90
-26.67
-29.22
-32.66
-36.86
-41.52
-46.09
-49.71
-51.22
-49.42
-43.46
-33.28
-19.89
-5.07
9.11
20.98
29.71
35.45
38.90
40.92
42.09
42.64
42.51
41.64
40.08
38.05
35.85
33.72
31.80
30.07
28.44
26.81
25.11
23.38
21.69
20.06
18.45
16.68
14.54
11.86
8.72
5.39
2.33
-0.08
-1.63
-2.44
-2.83
-3.23
-3.93
-5.04
-6.47
-7.98
-9.37
-10.47
-11.22
-11.63
-11.75
-11.69
-11.57
-11.57
-11.83
-12.48
-13.55
-14.95
-16.48
-17.84
-18.75
-19.08
-18.89
-18.46
-18.15
-18.24
-18.84
-19.83
-20.96
-22.01
-22.93
-23.89
-25.25
-27.33
-30.29
-33.91
-37.58
-40.31
-40.97
-38.49
-32.28
-22.42
-9.84
3.88
16.94
27.77
35.52
40.16
42.31
42.83
42.46
41.56
40.13
38.13
35.62
32.87
30.28
28.14
26.54
25.30
24.13
22.78
21.20
19.47
17.81
16.34
15.04
13.73
12.17
10.16
7.68
4.92
2.15
-0.30
-2.23
-3.56
-4.38
-4.88
-5.32
-5.89
-6.71
-7.70
-8.72
-9.59
-10.22
-10.63
-10.94
-11.29
-11.75
-12.30
-12.82
-13.21
-13.44
-13.62
-13.91
-14.48
-15.42
-16.71
-18.14
-19.46
-20.39
-20.81
-20.80
-20.72
-21.02
-22.14
-24.19
-26.95
-29.80
-31.92
-32.44
-30.65
-26.14
-18.98
-9.71
0.68
10.98
19.99
26.83
31.19
33.24
33.52
32.67
31.24
29.53
27.70
25.82
23.93
22.12
20.46
18.96
17.60
16.29
14.97
13.58
12.14
10.71
9.38
8.18
7.09
6.02
4.85
3.54
2.12
0.75
-0.37
-1.11
-1.48
-1.63
-1.77
-2.10
-2.70
-3.54
-4.50
-5.45
-6.32
-7.07
-7.76
-8.46
-9.25
-10.23
-11.40
-12.70
-14.00
-15.14
-16.03
-16.65
-17.06
-17.37
-17.62
-17.84
-18.03
-18.27
-18.69
-19.48
-20.77
-22.48
-24.30
-25.68
-25.93
-24.40
-20.65
-14.61
-6.72
2.21
11.06
18.74
24.49
28.00
29.52
29.61
28.88
27.78
26.53
25.11
23.51
21.78
20.04
18.44
17.06
15.83
14.57
13.13
11.46
9.63
7.79
6.09
4.62
3.35
2.19
1.00
-0.29
-1.69
-3.07
-4.24
-5.05
-5.46
-5.61
-5.71
-5.98
-6.49
-7.17
-7.78
-8.14
-8.16
-7.95
-7.72
-7.64
-7.85
-8.37
-9.18
-10.23
-11.41
-12.60
-13.60
-14.22
-14.39
-14.19
-13.92
-13.92
-14.51
-15.80
-17.72
-19.99
-22.14
-23.62
-23.78
-22.02
-17.98
-11.71
-3.82
4.69
12.58
18.81
22.80
24.52
24.39
22.99
20.84
18.27
15.46
12.57
9.84
7.61
6.17
5.73
6.20
7.27
8.53
9.61
10.31
10.64
10.75
10.73
10.59
10.18
9.31
7.87
5.95
3.81
1.81
0.23
-0.87
-1.59
-2.20
-2.95
-3.99
-5.27
-6.60
-7.74
-8.45
-8.69
-8.56
-8.37
-8.44
-9.03
-10.17
-11.65
-13.08
-14.08
-14.46
-14.31
-13.99
-13.97
-14.69
-16.31
-18.72
-21.52
-24.04
-25.47
-24.99
-22.01
-16.41
-8.62
0.32
9.08
16.50
21.84
25.05
26.54
26.96
26.77
26.17
25.09
23.45
21.34
19.07
17.01
15.43
14.40
13.71
13.07
12.25
11.18
9.95
8.71
7.62
6.68
5.75
4.65
3.23
1.48
-0.45
-2.27
-3.72
-4.64
-5.05
-5.15
-5.24
-5.51
-5.97
-6.48
-6.81
-6.79
-6.49
-6.12
-5.97
-6.24
-6.88
-7.66
-8.27
-8.48
-8.29
-7.95
-7.79
-8.20
-9.42
-11.53
-14.37
-17.58
-20.58
-22.59
-22.80
-20.66
-16.03
-9.42
-1.80
5.63
11.82
16.20
18.71
19.72
19.72
19.16
18.31
17.24
16.02
14.68
13.34
12.14
11.17
10.46
9.95
9.53
9.09
8.54
7.92
7.27
6.66
6.08
5.48
4.76
3.83
2.68
1.37
-0.04
-1.49
-2.93
-4.30
-5.54
-6.58
-7.38
-7.98
-8.50
-9.10
-9.88
-10.88
-12.02
-13.20
-14.29
-15.20
-15.87
-16.32
-16.67
-17.14
-18.05
-19.66
-22.06
-25.08
-28.24
-30.79
-31.91
-30.83
-27.15
-20.87
-12.53
-3.09
6.24
14.30
20.28
23.91
25.51
25.74
25.33
24.81
24.37
23.96
23.38
22.56
21.51
20.31
19.07
17.81
16.51
15.16
13.75
12.37
11.12
10.03
9.03
7.96
6.61
4.83
2.59
0.07
-2.44
-4.63
-6.27
-7.38
-8.22
-9.18
-10.55
-12.44
-14.65
-16.83
-18.65
-19.95
-20.84
-21.60
-22.65
-24.37
-26.95
-30.38
-34.20
-37.62
-39.48
-38.62
-34.30
-26.53
-16.21
-4.84
5.94
14.94
21.62
26.11
28.90
30.48
31.19
31.22
30.67
29.73
28.63
27.58
26.69
25.95
25.20
24.26
22.99
21.36
19.53
17.71
16.12
14.82
13.68
12.36
10.53
8.01
4.87
1.45
-1.82
-4.62
-6.87
-8.74
-10.53
-12.56
-14.97
-17.67
-20.38
-22.72
-24.38
-25.30
-25.73
-26.20
-27.35
-29.69
-33.34
-37.92
-42.50
-45.81
-46.54
-43.73
-37.04
-26.94
-14.60
-1.63
10.36
20.18
27.32
31.92
34.59
36.01
36.71
36.87
36.48
35.50
34.01
32.25
30.54
29.10
28.02
27.12
26.21
25.08
23.65
22.00
20.30
18.65
17.06
15.43
13.59
11.42
8.88
6.09
3.28
0.65
-1.64
-3.56
-5.21
-6.76
-8.32
-9.95
-11.62
-13.26
-14.83
-16.33
-17.88
-19.56
-21.40
-23.31
-25.08
-26.49
-27.49
-28.26
-29.22
-30.87
-33.62
-37.54
-42.26
-46.92
-50.31
-51.14
-48.37
-41.54
-31.00
-17.93
-4.04
8.83
19.28
26.73
31.42
34.21
36.07
37.69
39.29
40.69
41.59
41.78
41.26
40.20
38.76
37.01
34.89
32.36
29.56
26.76
24.31
22.45
21.12
20.03
18.74
16.86
14.30
11.25
8.10
5.25
2.97
1.30
0.09
-0.88
-1.84
-2.92
-4.13
-5.36
-6.40
-7.15
-7.57
-7.81
-8.11
-8.71
-9.69
-10.94
-12.24
-13.32
-14.08
-14.60
-15.10
-15.85
-17.01
-18.53
-20.25
-21.84
-23.02
-23.70
-23.97
-24.23
-24.95
-26.57
-29.31
-33.08
-37.37
-41.32
-43.76
-43.45
-39.45
-31.47
-20.17
-7.08
5.81
16.67
24.43
29.04
31.28
32.27
32.95
33.75
34.62
35.29
35.49
35.12
34.22
32.93
31.31
29.48
27.53
25.58
23.78
22.23
20.92
19.72
18.44
16.90
15.04
12.88
10.54
8.17
5.89
3.83
2.07
0.71
-0.22
-0.78
-1.12
-1.46
-2.01
-2.87
-3.96
-5.06
-5.92
-6.40
-6.53
-6.52
-6.61
-7.03
-7.82
-8.86
-9.90
-10.71
-11.16
-11.35
-11.52
-11.94
-12.84
-14.22
-15.93
-17.65
-19.13
-20.20
-20.86
-21.26
-21.58
-22.06
-22.92
-24.35
-26.47
-29.19
-32.11
-34.44
-35.15
-33.22
-28.10
-19.96
-9.79
0.90
10.55
18.07
23.05
25.78
26.93
27.24
27.31
27.45
27.78
28.24
28.69
28.91
28.69
27.92
26.59
24.83
22.83
20.78
18.81
16.98
15.31
13.79
12.44
11.24
10.09
8.91
7.63
6.25
4.85
3.60
2.60
1.92
1.49
1.17
0.79
0.25
-0.47
-1.30
-2.14
-2.87
-3.45
-3.91
-4.36
-4.90
-5.62
-6.52
-7.49
-8.38
-9.03
-9.42
-9.66
-9.96
-10.51
-11.41
-12.57
-13.74
-14.70
-15.26
-15.44
-15.45
-15.57
-16.09
-17.22
-18.95
-21.06
-23.16
-24.67
-24.96
-23.51
-19.99
-14.50
-7.55
0.00
7.11
12.86
16.67
18.46
18.61
17.76
16.61
15.60
14.91
14.44
14.01
13.52
12.98
12.49
12.15
11.93
11.69
11.21
10.40
9.34
8.28
7.49
7.11
7.05
7.05
6.82
6.20
5.22
4.10
3.08
2.32
1.83
1.51
1.22
0.83
0.32
-0.31
-1.01
-1.74
-2.50
-3.28
-4.06
-4.84
-5.55
-6.14
-6.60
-6.96
-7.37
-8.01
-8.98
-10.22
-11.48
-12.46
-12.95
-12.96
-12.79
-12.85
-13.50
-14.83
-16.67
-18.66
-20.38
-21.39
-21.27
-19.64
-16.30
-11.34
-5.26
1.07
6.67
10.79
13.14
13.95
13.77
13.18
12.60
12.19
11.92
11.73
11.55
11.40
11.26
11.10
10.79
10.25
9.42
8.33
7.14
6.01
5.10
4.46
3.99
3.56
3.01
2.28
1.41
0.52
-0.29
-0.92
-1.37
-1.69
-1.96
-2.25
-2.62
-3.07
-3.56
-4.06
-4.59
-5.23
-6.08
-7.19
-8.48
-9.76
-10.80
-11.50
-11.93
-12.35
-13.12
-14.52
-16.62
-19.25
-21.95
-24.10
-25.01
-24.07
-20.96
-15.82
-9.26
-2.25
4.14
9.13
12.34
13.88
14.21
13.86
13.24
12.60
12.02
11.45
10.87
10.28
9.67
9.02
8.32
7.51
6.59
5.59
4.63
3.84
3.27
2.90
2.63
2.27
1.67
0.71
-0.62
-2.24
-3.95
-5.50
-6.60
-7.06
-6.87
-6.26
-5.67
-5.57
-6.38
-8.24
-11.04
-14.38
-17.70
-20.35
-21.71
-21.24
-18.64
-14.00
-7.82
-0.96
5.56
10.93
14.71
16.91
17.91
18.13
17.87
17.24
16.21
14.83
13.26
11.76
10.48
9.42
8.41
7.25
5.86
4.39
3.04
1.98
1.15
0.30
-0.92
-2.74
-5.13
-7.79
-10.27
-12.19
-13.40
-14.04
-14.54
-15.46
-17.32
-20.38
-24.54
-29.22
-33.52
-36.34
-36.68
-33.90
-27.99
-19.59
-9.90
-0.30
7.97
14.14
18.10
20.20
21.16
21.63
22.02
22.42
22.63
22.37
21.47
19.94
17.97
15.81
13.69
11.70
9.87
8.19
6.72
5.48
4.37
3.13
1.40
-1.17
-4.62
-8.68
-12.78
-16.34
-19.02
-20.92
-22.54
-24.65
-27.93
-32.77
-38.90
-45.43
-50.88
-53.57
-52.13
-46.01
-35.80
-23.04
-9.80
2.07
11.51
18.43
23.53
27.72
31.65
35.42
38.66
40.87
41.71
41.24
39.86
38.09
36.36
34.81
33.31
31.62
29.50
26.92
24.04
21.14
18.45
16.00
13.53
10.65
6.98
2.36
-3.01
-8.53
-13.55
-17.51
-20.28
-22.15
-23.73
-25.74
-28.78
-33.22
-39.12
-46.18
-53.58
-59.99
-63.70
-63.13
-57.37
-46.62
-32.30
-16.63
-1.90
10.26
19.31
25.71
30.48
34.61
38.63
42.53
45.89
48.25
49.39
49.37
48.57
47.38
46.10
44.81
43.42
41.84
40.09
38.29
36.59
35.01
33.36
31.27
28.43
24.67
20.18
15.40
10.84
6.89
3.66
0.99
-1.41
-3.76
-6.19
-8.65
-11.09
-13.54
-16.14
-19.06
-22.35
-25.87
-29.30
-32.25
-34.47
-36.02
-37.27
-38.83
-41.35
-45.32
-50.83
-57.39
-63.89
-68.71
-70.06
-66.58
-57.77
-44.36
-28.15
-11.50
3.45
15.36
24.02
30.12
34.78
38.97
43.14
47.16
50.58
52.87
53.77
53.39
52.09
50.34
48.50
46.71
44.91
43.01
40.99
39.00
37.16
35.50
33.81
31.78
29.15
25.89
22.25
18.65
15.45
12.80
10.57
8.51
6.37
4.09
1.70
-0.69
-3.01
-5.23
-7.37
-9.50
-11.61
-13.72
-15.78
-17.69
-19.34
-20.63
-21.57
-22.38
-23.39
-24.92
-27.04
-29.56
-32.02
-33.99
-35.27
-36.03
-36.76
-38.09
-40.50
-44.24
-49.12
-54.47
-59.13
-61.61
-60.44
-54.71
-44.50
-30.97
-16.09
-1.99
9.74
18.47
24.52
28.81
32.32
35.68
39.03
42.12
44.59
46.14
46.73
46.49
45.66
44.42
42.93
41.21
39.31
37.35
35.53
34.05
32.97
32.10
31.04
29.36
26.78
23.38
19.54
15.80
12.62
10.18
8.33
6.76
5.14
3.29
1.26
-0.81
-2.70
-4.30
-5.62
-6.76
-7.86
-8.99
-10.12
-11.15
-11.95
-12.49
-12.85
-13.21
-13.74
-14.50
-15.40
-16.23
-16.86
-17.32
-17.85
-18.72
-20.15
-22.05
-24.12
-25.91
-27.11
-27.67
-27.86
-28.17
-29.13
-31.12
-34.17
-37.97
-41.78
-44.55
-45.08
-42.32
-35.82
-25.92
-13.82
-1.26
10.04
18.90
24.91
28.47
30.41
31.62
32.70
33.88
35.07
36.02
36.50
36.38
35.66
34.50
33.03
31.38
29.66
27.88
26.06
24.24
22.48
20.80
19.18
17.46
15.51
13.23
10.72
8.23
6.07
4.46
3.43
2.80
2.27
1.57
0.56
-0.75
-2.23
-3.65
-4.84
-5.74
-6.37
-6.91
-7.58
-8.57
-10.00
-11.78
-13.70
-15.48
-16.93
-17.98
-18.78
-19.61
-20.76
-22.35
-24.29
-26.24
-27.76
-28.51
-28.43
-27.84
-27.25
-27.20
-28.07
-29.90
-32.45
-35.21
-37.41
-38.13
-36.45
-31.73
-23.98
-14.02
-3.31
6.43
13.92
18.62
20.89
21.58
21.66
21.79
22.21
22.87
23.52
24.01
24.19
24.02
23.53
22.83
22.08
21.45
20.99
20.62
20.19
19.52
18.53
17.25
15.73
13.99
12.00
9.77
7.34
4.93
2.83
1.24
0.24
-0.36
-0.84
-1.52
-2.54
-3.87
-5.35
-6.77
-7.95
-8.77
-9.22
-9.34
-9.29
-9.27
-9.52
-10.24
-11.51
-13.25
-15.20
-17.00
-18.36
-19.14
-19.50
-19.83
-20.63
-22.33
-25.05
-28.57
-32.24
-35.11
-36.11
-34.35
-29.36
-21.31
-11.09
-0.12
10.01
18.06
23.37
26.08
26.79
26.33
25.39
24.31
23.25
22.19
21.17
20.24
19.49
18.86
18.22
17.41
16.30
14.89
13.27
11.60
10.02
8.63
7.46
6.52
5.80
5.22
4.71
4.21
3.67
3.15
2.71
2.39
2.12
1.75
1.07
0.05
-1.23
-2.52
-3.56
-4.23
-4.57
-4.85
-5.32
-6.12
-7.20
-8.36
-9.35
-10.04
-10.46
-10.86
-11.56
-12.82
-14.74
-17.13
-19.64
-21.77
-22.99
-22.75
-20.66
-16.54
-10.59
-3.48
3.82
10.24
14.93
17.56
18.30
17.71
16.44
15.00
13.63
12.42
11.39
10.58
10.02
9.73
9.63
9.55
9.31
8.77
7.91
6.81
5.60
4.43
3.39
2.49
1.68
0.84
-0.15
-1.33
-2.60
-3.75
-4.52
-4.74
-4.45
-3.89
-3.44
-3.39
-3.89
-4.90
-6.22
-7.59
-8.79
-9.69
-10.22
-10.42
-10.48
-10.71
-11.39
-12.72
-14.70
-17.07
-19.41
-21.20
-21.91
-21.06
-18.31
-13.59
-7.22
0.00
7.05
12.86
16.78
18.73
19.11
18.54
17.56
16.43
15.11
13.55
11.76
9.96
8.44
7.42
6.94
6.86
6.89
6.76
6.35
5.67
4.86
4.03
3.27
2.55
1.74
0.72
-0.50
-1.75
-2.81
-3.48
-3.76
-3.83
-4.00
-4.51
-5.42
-6.59
-7.72
-8.56
-9.02
-9.29
-9.69
-10.62
-12.32
-14.83
-17.95
-21.20
-23.97
-25.51
-25.16
-22.46
-17.38
-10.41
-2.53
5.05
11.29
15.56
17.85
18.57
18.38
17.79
17.09
16.30
15.33
14.18
12.94
11.80
10.88
10.20
9.63
9.02
8.29
7.47
6.69
6.00
5.37
4.60
3.49
1.97
0.17
-1.65
-3.23
-4.43
-5.36
-6.23
-7.26
-8.50
-9.83
-11.06
-12.05
-12.82
-13.56
-14.51
-15.94
-17.99
-20.70
-23.91
-27.27
-30.17
-31.82
-31.40
-28.36
-22.68
-15.01
-6.46
1.69
8.44
13.32
16.48
18.44
19.79
20.94
21.95
22.68
22.92
22.61
21.89
21.05
20.36
19.90
19.56
19.03
18.02
16.39
14.25
11.93
9.81
8.16
7.03
6.23
5.47
4.48
3.13
1.49
-0.26
-1.95
-3.43
-4.65
-5.64
-6.50
-7.33
-8.29
-9.52
-11.11
-13.03
-15.10
-17.02
-18.52
-19.47
-20.01
-20.47
-21.36
-23.12
-25.96
-29.73
-33.85
-37.33
-39.00
-37.80
-33.20
-25.43
-15.51
-4.95
4.70
12.36
17.62
20.80
22.61
23.87
25.16
26.72
28.42
29.92
30.82
30.91
30.21
28.96
27.47
25.96
24.53
23.11
21.63
20.09
18.56
17.12
15.71
14.17
12.32
10.14
7.81
5.68
4.01
2.91
2.21
1.64
0.93
-0.00
-1.11
-2.25
-3.36
-4.44
-5.55
-6.71
-7.92
-9.09
-10.17
-11.15
-12.11
-13.15
-14.36
-15.78
-17.32
-18.85
-20.13
-21.01
-21.43
-21.51
-21.62
-22.16
-23.56
-25.98
-29.33
-33.10
-36.45
-38.35
-37.80
-34.09
-27.14
-17.58
-6.67
4.02
13.06
19.60
23.51
25.33
25.91
26.08
26.38
26.96
27.66
28.22
28.42
28.11
27.31
26.13
24.72
23.25
21.86
20.61
19.52
18.54
17.59
16.58
15.41
13.99
12.25
10.21
7.97
5.75
3.82
2.38
1.48
0.95
0.50
-0.12
-1.06
-2.30
-3.72
-5.15
-6.50
-7.73
-8.81
-9.73
-10.42
-10.87
-11.16
-11.47
-11.99
-12.84
-14.02
-15.31
-16.46
-17.23
-17.56
-17.59
-17.61
-17.96
-18.98
-20.81
-23.41
-26.53
-29.60
-31.87
-32.50
-30.72
-26.17
-19.03
-10.09
-0.57
8.25
15.39
20.43
23.49
25.01
25.56
25.59
25.36
25.03
24.66
24.32
24.03
23.75
23.33
22.65
21.58
20.14
18.44
16.64
14.90
13.30
11.85
10.49
9.16
7.83
6.49
5.19
3.96
2.78
1.62
0.44
-0.76
-1.95
-3.06
-4.00
-4.74
-5.28
-5.66
-5.91
-6.08
-6.19
-6.27
-6.37
-6.50
-6.64
-6.74
-6.78
-6.80
-6.92
-7.31
-8.08
-9.19
-10.47
-11.65
-12.52
-13.03
-13.35
-13.82
-14.80
-16.55
-19.11
-22.23
-25.33
-27.59
-28.10
-26.11
-21.34
-14.23
-5.80
2.53
9.48
14.24
16.75
17.48
17.15
16.46
15.82
15.38
15.09
14.89
14.71
14.50
14.23
13.88
13.43
12.87
12.22
11.48
10.73
10.02
9.46
9.07
8.81
8.50
7.98
7.14
6.00
4.77
3.65
2.80
2.24
1.89
1.62
1.37
1.10
0.79
0.40
-0.14
-0.93
-1.96
-3.17
-4.38
-5.40
-6.11
-6.52
-6.79
-7.11
-7.64
-8.40
-9.28
-10.13
-10.87
-11.55
-12.38
-13.62
-15.43
-17.78
-20.40
-22.91
-24.83
-25.74
-25.19
-22.86
-18.58
-12.55
-5.41
1.89
8.25
12.84
15.36
16.07
15.59
14.63
13.66
12.83
12.08
11.28
10.42
9.59
8.91
8.45
8.15
7.88
7.50
7.00
6.45
6.01
5.75
5.64
5.55
5.28
4.72
3.86
2.82
1.80
0.94
0.34
0.03
-0.08
-0.08
-0.15
-0.43
-1.00
-1.84
-2.83
-3.79
-4.59
-5.21
-5.75
-6.37
-7.17
-8.08
-8.89
-9.31
-9.15
-8.46
-7.60
-7.08
-7.43
-8.95
-11.60
-14.96
-18.29
-20.78
-21.64
-20.37
-16.82
-11.35
-4.75
1.99
7.81
12.01
14.35
15.10
14.82
14.18
13.65
13.41
13.41
13.47
13.44
13.27
12.99
12.65
12.28
11.81
11.16
10.29
9.24
8.11
7.02
6.05
5.16
4.28
3.32
2.24
1.06
-0.17
-1.42
-2.65
-3.80
-4.76
-5.43
-5.80
-5.97
-6.15
-6.58
-7.37
-8.50
-9.72
-10.78
-11.48
-11.83
-12.05
-12.55
-13.63
-15.50
-18.09
-21.05
-23.87
-25.89
-26.44
-24.96
-21.18
-15.24
-7.77
0.19
7.52
13.31
17.15
19.11
19.70
19.50
18.97
18.36
17.71
17.02
16.29
15.61
15.03
14.60
14.25
13.90
13.36
12.51
11.30
9.73
7.96
6.16
4.52
3.15
2.05
1.13
0.23
-0.74
-1.82
-2.99
-4.11
-5.07
-5.79
-6.26
-6.53
-6.72
-6.99
-7.51
-8.40
-9.63
-11.05
-12.44
-13.54
-14.28
-14.74
-15.22
-16.10
-17.74
-20.27
-23.59
-27.24
-30.46
-32.32
-31.89
-28.61
-22.53
-14.40
-5.48
2.83
9.51
14.16
17.00
18.67
19.81
20.90
22.05
23.15
23.98
24.37
24.23
23.59
22.56
21.28
19.90
18.50
17.10
15.70
14.26
12.79
11.32
9.93
8.71
7.70
6.90
6.23
5.57
4.78
3.80
2.62
1.29
-0.08
-1.45
-2.84
-4.31
-5.95
-7.80
-9.84
-12.01
-14.13
-16.00
-17.49
-18.48
-19.07
-19.47
-20.01
-21.12
-23.10
-26.04
-29.73
-33.62
-36.81
-38.30
-37.17
-32.94
-25.80
-16.65
-6.84
2.22
9.56
14.84
18.37
20.79
22.74
24.61
26.49
28.23
29.62
30.45
30.61
30.08
28.95
27.41
25.67
23.94
22.35
20.94
19.69
18.52
17.33
15.98
14.32
12.24
9.74
7.00
4.32
2.05
0.37
-0.79
-1.70
-2.67
-3.84
-5.13
-6.28
-7.07
-7.47
-7.67
-8.06
-8.92
-10.37
-12.27
-14.34
-16.31
-18.04
-19.53
-20.91
-22.39
-24.26
-26.76
-30.06
-34.06
-38.25
-41.76
-43.46
-42.35
-37.92
-30.40
-20.75
-10.35
-0.62
7.51
13.68
18.17
21.54
24.38
27.04
29.53
31.62
33.08
33.77
33.74
33.21
32.36
31.34
30.09
28.55
26.66
24.49
22.26
20.18
18.40
16.91
15.49
13.92
12.04
9.89
7.66
5.61
3.93
2.68
1.74
0.92
-0.05
-1.33
-2.91
-4.67
-6.36
-7.75
-8.73
-9.39
-9.96
-10.76
-11.99
-13.66
-15.57
-17.39
-18.84
-19.79
-20.32
-20.67
-21.19
-22.26
-24.21
-27.18
-30.99
-34.98
-38.05
-38.91
-36.50
-30.51
-21.58
-11.16
-1.02
7.37
13.30
16.85
18.70
19.75
20.68
21.87
23.31
24.80
26.07
26.88
27.11
26.73
25.83
24.54
23.00
21.37
19.75
18.29
17.12
16.33
15.86
15.47
14.82
13.58
11.59
8.97
6.10
3.44
1.36
-0.08
-1.04
-1.89
-2.96
-4.36
-5.98
-7.55
-8.80
-9.57
-9.93
-10.10
-10.37
-10.99
-12.01
-13.36
-14.83
-16.18
-17.25
-18.07
-18.79
-19.73
-21.20
-23.43
-26.37
-29.64
-32.43
-33.67
-32.40
-27.99
-20.62
-11.24
-1.39
7.37
13.95
18.01
19.99
20.74
21.11
21.62
22.38
23.15
23.61
23.58
23.06
22.23
21.26
20.28
19.27
18.13
16.77
15.18
13.50
11.87
10.45
9.26
8.27
7.32
6.29
5.12
3.75
2.27
0.72
-0.75
-2.06
-3.13
-3.97
-4.70
-5.51
-6.65
-8.23
-10.24
-12.46
-14.49
-15.96
-16.62
-16.55
-16.11
-15.85
-16.31
-17.84
-20.48
-23.90
-27.51
-30.38
-31.58
-30.25
-25.92
-18.79
-9.69
0.05
8.93
15.81
20.15
22.18
22.60
22.31
22.01
21.98
22.11
22.09
21.65
20.73
19.48
18.12
16.79
15.48
14.06
12.45
10.72
9.07
7.78
6.94
6.47
6.08
5.46
4.40
2.95
1.31
-0.22
-1.45
-2.32
-2.95
-3.52
-4.20
-5.03
-5.93
-6.80
-7.57
-8.31
-9.18
-10.33
-11.77
-13.32
-14.70
-15.66
-16.21
-16.56
-17.13
-18.30
-20.31
-23.15
-26.44
-29.52
-31.49
-31.35
-28.40
-22.47
-14.17
-4.71
4.38
11.82
16.96
19.89
21.19
21.61
21.74
21.82
21.82
21.64
21.21
20.57
19.81
18.99
18.16
17.23
16.15
14.87
13.48
12.10
10.91
9.97
9.23
8.53
7.66
6.52
5.09
3.55
2.06
0.81
-0.12
-0.74
-1.19
-1.65
-2.33
-3.36
-4.69
-6.12
-7.36
-8.19
-8.54
-8.60
-8.69
-9.10
-9.97
-11.19
-12.54
-13.74
-14.63
-15.24
-15.76
-16.47
-17.67
-19.58
-22.21
-25.37
-28.49
-30.76
-31.23
-29.12
-24.12
-16.62
-7.64
1.45
9.33
15.16
18.75
20.50
21.12
21.26
21.27
21.21
20.95
20.42
19.65
18.74
17.84
16.98
16.05
14.90
13.45
11.80
10.14
8.77
7.85
7.36
7.10
6.77
6.14
5.10
3.79
2.43
1.29
0.59
0.38
0.57
0.95
1.20
1.03
0.32
-0.91
-2.45
-3.94
-5.11
-5.83
-6.19
-6.49
-7.02
-7.94
-9.18
-10.45
-11.48
-12.13
-12.47
-12.79
-13.40
-14.60
-16.48
-18.97
-21.86
-24.72
-27.00
-27.96
-26.92
-23.46
-17.70
-10.33
-2.52
4.56
10.00
13.52
15.36
16.13
16.39
16.57
16.80
17.02
17.16
17.15
16.99
16.68
16.21
15.52
14.59
13.38
11.96
10.40
8.83
7.36
6.07
5.02
4.17
3.48
2.80
2.01
1.03
-0.13
-1.32
-2.33
-2.99
-3.23
-3.19
-3.16
-3.48
-4.38
-5.88
-7.71
-9.49
-10.83
-11.55
-11.76
-11.87
-12.40
-13.77
-16.14
-19.31
-22.75
-25.68
-27.28
-26.79
-23.83
-18.49
-11.41
-3.66
3.59
9.36
13.19
15.17
15.80
15.64
15.15
14.48
13.67
12.69
11.64
10.69
9.95
9.47
9.13
8.76
8.18
7.35
6.31
5.15
3.96
2.78
1.64
0.62
-0.22
-0.81
-1.13
-1.28
-1.42
-1.75
-2.44
-3.49
-4.79
-6.06
-7.07
-7.73
-8.18
-8.74
-9.85
-11.89
-14.98
-18.90
-23.09
-26.70
-28.70
-28.27
-24.94
-18.89
-10.98
-2.49
5.19
11.07
14.78
16.64
17.38
17.76
18.30
19.09
19.95
20.58
20.79
20.54
19.93
19.08
18.04
16.79
15.32
13.68
11.97
10.32
8.76
7.25
5.65
3.87
1.94
0.01
-1.70
-3.02
-3.95
-4.59
-5.14
-5.79
-6.63
-7.63
-8.69
-9.69
-10.55
-11.30
-12.07
-13.15
-14.88
-17.50
-21.02
-25.06
-28.78
-31.02
-30.73
-27.25
-20.73
-12.11
-2.83
5.61
12.16
16.46
18.81
19.90
20.40
20.74
21.03
21.19
21.08
20.61
19.86
18.91
17.88
16.80
15.60
14.19
12.48
10.50
8.43
6.56
5.21
4.55
4.53
4.79
4.83
4.18
2.64
0.38
-2.12
-4.25
-5.55
-5.94
-5.71
-5.44
-5.68
-6.76
-8.61
-10.89
-13.12
-14.92
-16.15
-16.99
-17.80
-19.01
-21.01
-24.02
-27.99
-32.53
-36.94
-40.21
-41.31
-39.41
-34.24
-26.29
-16.70
-6.94
1.64
8.23
12.79
15.86
18.25
20.61
23.23
25.97
28.39
30.07
30.75
30.50
29.58
28.35
27.14
26.06
25.07
24.07
22.98
21.80
20.58
19.32
17.91
16.22
14.13
11.67
9.02
6.45
4.14
2.12
0.25
-1.68
-3.79
-6.06
-8.34
-10.43
-12.21
-13.71
-15.11
-16.60
-18.35
-20.34
-22.41
-24.30
-25.77
-26.77
-27.52
-28.50
-30.28
-33.39
-37.91
-43.30
-48.39
-51.60
-51.42
-46.99
-38.40
-26.82
-14.04
-1.99
8.03
15.50
20.79
24.71
28.11
31.50
34.90
38.00
40.37
41.74
42.10
41.65
40.69
39.41
37.85
35.98
33.85
31.61
29.52
27.80
26.45
25.22
23.72
21.61
18.84
15.67
12.55
9.94
7.99
6.57
5.28
3.75
1.78
-0.56
-3.03
-5.36
-7.38
-9.08
-10.57
-12.01
-13.48
-14.99
-16.44
-17.80
-19.02
-20.13
-21.20
-22.33
-23.70
-25.53
-28.09
-31.47
-35.45
-39.29
-41.90
-41.98
-38.63
-31.72
-22.06
-11.19
-0.89
7.48
13.37
17.08
19.47
21.44
23.55
25.85
27.98
29.47
29.96
29.43
28.14
26.47
24.74
23.08
21.44
19.70
17.84
16.01
14.42
13.26
12.50
11.87
10.96
9.45
7.22
4.47
1.61
-0.91
-2.82
-4.14
-5.15
-6.26
-7.81
-9.87
-12.20
-14.38
-15.96
-16.77
-16.99
-17.13
-17.82
-19.54
-22.42
-26.21
-30.28
-33.76
-35.66
-35.08
-31.49
-24.96
-16.19
-6.47
2.74
10.27
15.53
18.65
20.26
21.08
21.67
22.27
22.77
23.00
22.82
22.24
21.42
20.49
19.50
18.41
17.06
15.38
13.44
11.46
9.72
8.40
7.49
6.76
5.92
4.75
3.24
1.54
-0.11
-1.56
-2.81
-3.99
-5.29
-6.84
-8.61
-10.45
-12.14
-13.45
-14.29
-14.73
-15.06
-15.74
-17.21
-19.72
-23.18
-27.08
-30.46
-32.24
-31.38
-27.38
-20.45
-11.60
-2.28
6.04
12.31
16.27
18.33
19.31
19.93
20.62
21.39
21.99
22.22
22.00
21.42
20.65
19.75
18.70
17.39
15.77
13.86
11.79
9.73
7.81
6.02
4.31
2.55
0.65
-1.39
-3.52
-5.66
-7.80
-9.97
-12.28
-14.84
-17.68
-20.67
-23.59
-26.15
-28.11
-29.44
-30.35
-31.32
-32.88
-35.47
-39.19
-43.68
-47.97
-50.76
-50.73
-46.93
-39.27
-28.55
-16.35
-4.50
5.52
12.97
18.04
21.48
24.21
26.81
29.40
31.67
33.19
33.72
33.29
32.20
30.84
29.48
28.15
26.80
25.21
23.28
21.05
18.69
16.41
14.44
12.87
11.60
10.52
9.43
8.21
6.88
5.56
4.44
3.67
3.25
2.96
2.53
1.60
-0.00
-2.26
-4.90
-7.51
-9.70
-11.22
-12.14
-12.72
-13.46
-14.84
-17.23
-20.79
-25.36
-30.38
-34.95
-37.94
-38.23
-35.09
-28.38
-18.81
-7.73
3.19
12.50
19.32
23.61
25.92
27.08
27.82
28.53
29.19
29.59
29.54
29.02
28.16
27.20
26.23
25.19
23.94
22.30
20.26
17.96
15.68
13.70
12.14
10.95
9.92
8.80
7.41
5.72
3.84
1.98
0.26
-1.22
-2.54
-3.76
-5.03
-6.42
-7.94
-9.60
-11.40
-13.37
-15.55
-17.90
-20.31
-22.52
-24.28
-25.41
-25.99
-26.30
-26.87
-28.21
-30.68
-34.30
-38.61
-42.68
-45.31
-45.23
-41.65
-34.45
-24.42
-12.98
-1.77
7.88
15.32
20.52
23.94
26.15
27.61
28.59
29.24
29.64
29.88
29.95
29.76
29.13
27.89
26.02
23.64
21.09
18.74
16.87
15.56
14.60
13.65
12.35
10.50
8.17
5.58
3.06
0.83
-1.07
-2.69
-4.17
-5.57
-6.84
-7.87
-8.55
-8.84
-8.88
-8.89
-9.13
-9.80
-10.96
-12.48
-14.12
-15.57
-16.55
-16.97
-16.95
-16.81
-16.99
-17.92
-19.89
-22.95
-26.70
-30.35
-32.77
-32.78
-29.56
-23.00
-13.86
-3.64
5.96
13.53
18.47
21.01
21.90
22.01
21.93
21.83
21.62
21.15
20.37
19.45
18.60
17.92
17.41
16.87
16.06
14.84
13.23
11.47
9.83
8.57
7.73
7.13
6.45
5.42
3.90
2.00
0.02
-1.65
-2.71
-3.11
-3.00
-2.75
-2.77
-3.34
-4.52
-6.10
-7.75
-9.10
-9.95
-10.30
-10.38
-10.55
-11.20
-12.61
-14.84
-17.76
-20.92
-23.66
-25.20
-24.83
-22.09
-16.99
-10.05
-2.21
5.39
11.76
16.27
18.80
19.61
19.20
18.10
16.67
15.16
13.69
12.33
11.10
10.08
9.24
8.55
7.96
7.36
6.69
5.84
4.77
3.46
1.95
0.34
-1.24
-2.64
-3.74
-4.49
-4.92
-5.16
-5.41
-5.79
-6.37
-7.08
-7.78
-8.30
-8.56
-8.60
-8.58
-8.75
-9.38
-10.65
-12.66
-15.27
-18.22
-20.90
-22.57
-22.40
-19.80
-14.71
-7.71
0.06
7.27
12.80
16.17
17.54
17.58
17.00
16.25
15.36
14.18
12.55
10.57
8.55
6.80
5.47
4.47
3.54
2.44
1.14
-0.20
-1.35
-2.10
-2.39
-2.35
-2.21
-2.23
-2.65
-3.61
-5.09
-6.93
-8.84
-10.49
-11.68
-12.41
-12.89
-13.52
-14.68
-16.67
-19.55
-23.11
-26.90
-30.19
-32.07
-31.69
-28.51
-22.54
-14.50
-5.63
2.70
9.42
14.08
16.92
18.63
19.87
21.03
22.09
22.84
23.12
22.95
22.55
22.15
21.80
21.32
20.37
18.70
16.27
13.36
10.40
7.86
6.02
4.81
3.92
2.85
1.16
-1.31
-4.42
-7.71
-10.67
-12.87
-14.25
-15.03
-15.66
-16.64
-18.44
-21.32
-25.30
-30.12
-35.09
-39.16
-41.08
-39.81
-34.87
-26.62
-16.27
-5.41
4.41
12.24
17.84
21.70
24.51
26.94
29.25
31.30
32.73
33.21
32.67
31.30
29.52
27.72
26.10
24.67
23.31
21.88
20.30
18.63
16.92
15.19
13.40
11.48
9.38
7.14
4.81
2.48
0.27
-1.71
-3.34
-4.59
-5.46
-6.13
-6.88
-7.98
-9.63
-11.86
-14.48
-17.15
-19.49
-21.20
-22.17
-22.54
-22.68
-23.13
-24.39
-26.86
-30.61
-35.36
-40.32
-44.32
-45.97
-44.11
-38.20
-28.62
-16.70
-4.31
6.75
15.32
21.20
24.96
27.56
29.80
32.06
34.24
36.02
37.08
37.27
36.65
35.39
33.66
31.63
29.37
26.95
24.45
21.97
19.69
17.77
16.28
15.16
14.18
13.04
11.48
9.46
7.17
4.99
3.28
2.24
1.79
1.61
1.30
0.56
-0.70
-2.42
-4.37
-6.30
-8.00
-9.32
-10.23
-10.82
-11.27
-11.86
-12.79
-14.17
-15.90
-17.69
-19.23
-20.25
-20.83
-21.24
-22.00
-23.58
-26.28
-30.05
-34.41
-38.49
-41.13
-41.21
-37.94
-31.25
-21.85
-11.14
-0.72
8.01
14.34
18.28
20.46
21.69
22.65
23.72
24.97
26.27
27.45
28.30
28.72
28.65
28.10
27.16
25.84
24.20
22.30
20.24
18.17
16.24
14.56
13.11
11.73
10.27
8.61
6.80
4.98
3.35
2.06
1.15
0.54
0.13
-0.20
-0.54
-0.99
-1.66
-2.63
-3.91
-5.43
-7.02
-8.47
-9.63
-10.45
-10.99
-11.38
-11.80
-12.42
-13.31
-14.46
-15.71
-16.80
-17.48
-17.57
-17.13
-16.49
-16.17
-16.70
-18.41
-21.28
-24.88
-28.43
-30.92
-31.35
-28.99
-23.61
-15.69
-6.34
2.96
10.78
16.21
19.08
19.88
19.55
18.97
18.71
18.89
19.35
19.80
19.99
19.91
19.60
19.14
18.55
17.76
16.64
15.24
13.67
12.21
11.07
10.30
9.74
9.08
8.05
6.63
5.00
3.51
2.41
1.77
1.40
1.06
0.56
-0.13
-0.93
-1.72
-2.51
-3.40
-4.53
-5.98
-7.67
-9.41
-10.95
-12.15
-13.02
-13.71
-14.42
-15.35
-16.61
-18.12
-19.73
-21.17
-22.23
-22.76
-22.84
-22.74
-22.93
-23.89
-26.01
-29.30
-33.35
-37.21
-39.69
-39.58
-36.10
-29.15
-19.45
-8.34
2.56
11.91
18.93
23.54
26.17
27.55
28.27
28.71
28.91
28.81
28.31
27.48
26.43
25.28
24.13
22.97
21.76
20.45
19.14
17.92
16.92
16.18
15.60
15.01
14.14
12.86
11.12
9.07
6.96
5.03
3.48
2.31
1.41
0.64
-0.17
-1.07
-2.03
-2.92
-3.69
-4.35
-4.95
-5.56
-6.18
-6.74
-7.16
-7.42
-7.65
-8.04
-8.77
-9.90
-11.34
-12.84
-14.15
-15.06
-15.59
-15.88
-16.21
-16.92
-18.22
-20.22
-22.78
-25.50
-27.72
-28.62
-27.39
-23.56
-17.11
-8.75
0.40
8.97
15.81
20.31
22.51
22.92
22.29
21.22
20.06
18.93
17.86
16.86
16.01
15.36
14.84
14.35
13.69
12.79
11.63
10.39
9.22
8.23
7.41
6.66
5.88
5.02
4.09
3.16
2.31
1.57
0.95
0.37
-0.21
-0.86
-1.57
-2.26
-2.83
-3.15
-3.21
-3.10
-3.07
-3.40
-4.28
-5.72
-7.48
-9.23
-10.65
-11.61
-12.19
-12.64
-13.23
-14.17
-15.55
-17.31
-19.28
-21.06
-22.07
-21.60
-19.03
-14.18
-7.47
0.09
7.23
12.83
16.35
17.89
17.99
17.33
16.37
15.33
14.24
13.05
11.80
10.60
9.59
8.83
8.33
8.00
7.69
7.28
6.68
5.91
5.14
4.55
4.23
4.14
4.08
3.80
3.18
2.27
1.32
0.58
0.14
-0.12
-0.47
-1.20
-2.44
-4.04
-5.61
-6.70
-6.88
-5.98
-4.15
-1.83
0.30
1.53
1.39
-0.32
-3.37
-7.23
-11.22
-14.65
-16.99
-17.93
-17.37
-15.47
-12.57
-9.20
-5.90
-3.14
-1.12
0.17
0.98
1.58
2.13
2.62
2.93
2.98
2.79
2.54
2.44
2.66
3.19
3.85
4.42
4.68
4.56
4.14
3.60
3.13
2.83
2.64
2.38
1.84
0.89
-0.39
-1.77
-2.94
-3.65
-3.92
-3.98
-4.24
-5.02
-6.45
-8.35
-10.36
-12.09
-13.37
-14.35
-15.40
-16.99
-19.41
-22.72
-26.70
-30.86
-34.53
-36.87
-37.00
-34.21
-28.30
-19.74
-9.73
0.20
8.64
14.78
18.62
20.79
22.16
23.39
24.74
26.03
26.93
27.19
26.77
25.85
24.73
23.66
22.75
21.98
21.22
20.38
19.41
18.38
17.37
16.42
15.45
14.31
12.86
11.05
8.98
6.84
4.83
3.09
1.57
0.11
-1.45
-3.20
-5.02
-6.68
-8.00
-8.86
-9.43
-10.02
-10.97
-12.53
-14.70
-17.19
-19.55
-21.43
-22.69
-23.59
-24.62
-26.37
-29.28
-33.47
-38.57
-43.72
-47.65
-49.01
-46.78
-40.61
-31.08
-19.60
-7.93
2.35
10.32
15.88
19.57
22.13
24.20
26.12
27.92
29.51
30.78
31.67
32.17
32.28
32.04
31.48
30.68
29.69
28.59
27.42
26.28
25.21
24.20
23.20
22.03
20.58
18.79
16.73
14.55
12.43
10.48
8.74
7.19
5.84
4.71
3.75
2.83
1.69
0.13
-1.89
-4.16
-6.35
-8.09
-9.23
-9.97
-10.68
-11.84
-13.66
-16.07
-18.75
-21.27
-23.28
-24.62
-25.40
-25.92
-26.67
-28.16
-30.84
-34.84
-39.88
-45.11
-49.23
-50.78
-48.56
-42.17
-32.22
-20.15
-7.84
3.04
11.44
17.19
20.82
23.19
25.09
26.97
28.95
30.86
32.54
33.78
34.57
34.92
34.85
34.37
33.53
32.35
31.00
29.63
28.39
27.34
26.42
25.44
24.17
22.45
20.19
17.45
14.44
11.43
8.70
6.49
4.91
3.88
3.23
2.68
2.00
1.01
-0.34
-2.01
-3.91
-5.90
-7.85
-9.65
-11.30
-12.90
-14.59
-16.47
-18.48
-20.37
-21.84
-22.66
-22.82
-22.60
-22.43
-22.84
-24.24
-26.79
-30.33
-34.33
-37.86
-39.74
-38.89
-34.67
-27.22
-17.53
-7.17
2.29
9.70
14.71
17.62
19.16
20.08
20.85
21.70
22.58
23.37
23.98
24.33
24.40
24.20
23.75
23.09
22.25
21.25
20.13
18.89
17.61
16.32
15.01
13.66
12.19
10.56
8.79
6.96
5.21
3.69
2.43
1.39
0.40
-0.68
-1.88
-3.08
-4.07
-4.69
-5.02
-5.30
-5.89
-7.03
-8.70
-10.60
-12.35
-13.64
-14.45
-15.02
-15.72
-16.93
-18.86
-21.56
-24.80
-28.07
-30.56
-31.31
-29.53
-24.85
-17.68
-9.09
-0.47
6.91
12.34
15.74
17.54
18.31
18.53
18.40
17.98
17.27
16.34
15.36
14.54
13.98
13.68
13.43
13.02
12.29
11.21
10.01
8.88
7.97
7.17
6.25
4.91
3.08
0.95
-1.14
-2.83
-3.92
-4.51
-4.86
-5.31
-6.05
-7.12
-8.36
-9.55
-10.46
-11.06
-11.45
-11.91
-12.80
-14.41
-16.92
-20.17
-23.81
-27.12
-29.24
-29.25
-26.59
-21.13
-13.51
-4.86
3.41
10.09
14.53
16.81
17.49
17.30
16.81
16.20
15.45
14.46
13.21
11.90
10.81
10.12
9.89
9.94
10.00
9.80
9.21
8.25
7.00
5.59
4.14
2.75
1.46
0.29
-0.78
-1.87
-3.11
-4.57
-6.24
-8.01
-9.67
-11.07
-12.17
-13.06
-13.98
-15.20
-17.00
-19.57
-22.93
-26.87
-30.78
-33.79
-34.80
-32.97
-27.96
-20.25
-11.00
-1.68
6.44
12.64
16.90
19.65
21.44
22.67
23.49
23.85
23.66
22.88
21.60
19.95
18.16
16.45
15.07
14.16
13.67
13.33
12.81
11.82
10.28
8.35
6.37
4.60
3.14
1.85
0.43
-1.36
-3.60
-6.19
-8.84
-11.24
-13.19
-14.67
-15.89
-17.21
-19.06
-21.77
-25.45
-29.96
-34.70
-38.76
-40.97
-40.27
-36.03
-28.31
-18.05
-6.74
3.99
12.88
19.38
23.67
26.37
28.14
29.38
30.15
30.25
29.54
28.04
26.01
23.84
21.88
20.33
19.10
17.99
16.70
15.06
13.09
10.97
8.95
7.14
5.47
3.65
1.32
-1.77
-5.58
-9.77
-13.77
-17.01
-19.13
-20.15
-20.48
-20.81
-21.84
-24.11
-27.83
-32.83
-38.51
-43.88
-47.63
-48.44
-45.34
-38.07
-27.27
-14.44
-1.42
10.08
19.08
25.38
29.45
32.06
33.86
35.18
36.01
36.21
35.68
34.50
32.94
31.29
29.77
28.34
26.87
25.16
23.21
21.13
19.22
17.62
16.24
14.79
12.81
10.05
6.59
2.86
-0.53
-3.11
-4.80
-5.90
-7.04
-8.75
-11.26
-14.34
-17.46
-20.04
-21.76
-22.77
-23.61
-24.98
-27.51
-31.47
-36.70
-42.62
-48.20
-52.14
-53.05
-49.86
-42.14
-30.48
-16.42
-2.08
10.51
20.07
26.31
29.94
32.11
33.85
35.73
37.69
39.33
40.24
40.21
39.34
37.90
36.19
34.36
32.45
30.43
28.30
26.16
24.13
22.32
20.66
18.98
17.05
14.77
12.19
9.51
7.02
4.92
3.29
2.03
0.94
-0.19
-1.48
-2.93
-4.45
-5.94
-7.34
-8.67
-10.00
-11.37
-12.70
-13.82
-14.52
-14.70
-14.44
-14.02
-13.80
-14.04
-14.84
-16.08
-17.54
-18.96
-20.18
-21.17
-22.03
-22.99
-24.38
-26.52
-29.62
-33.59
-37.81
-41.24
-42.48
-40.33
-34.22
-24.55
-12.70
-0.53
10.21
18.40
23.79
26.86
28.49
29.48
30.35
31.26
32.14
32.82
33.14
33.03
32.49
31.53
30.17
28.41
26.26
23.82
21.25
18.78
16.61
14.87
13.46
12.14
10.65
8.77
6.53
4.10
1.82
0.03
-1.07
-1.50
-1.44
-1.21
-1.08
-1.22
-1.67
-2.33
-3.10
-3.84
-4.51
-5.12
-5.77
-6.61
-7.74
-9.17
-10.76
-12.28
-13.43
-13.99
-13.92
-13.40
-12.79
-12.44
-12.58
-13.26
-14.28
-15.37
-16.26
-16.85
-17.22
-17.69
-18.65
-20.44
-23.16
-26.63
-30.21
-32.95
-33.73
-31.61
-26.18
-17.80
-7.63
2.71
11.63
18.08
21.80
23.26
23.33
22.86
22.35
21.99
21.70
21.36
20.94
20.45
19.93
19.35
18.61
17.57
16.15
14.47
12.73
11.28
10.36
9.99
9.96
9.91
9.52
8.62
7.33
5.89
4.61
3.61
2.87
2.20
1.41
0.39
-0.87
-2.24
-3.54
-4.62
-5.38
-5.87
-6.17
-6.46
-6.82
-7.28
-7.71
-7.97
-7.94
-7.62
-7.17
-6.82
-6.82
-7.36
-8.47
-9.99
-11.63
-13.02
-13.86
-14.08
-13.83
-13.54
-13.68
-14.69
-16.69
-19.50
-22.53
-24.92
-25.71
-24.06
-19.59
-12.55
-3.89
5.00
12.67
18.11
20.98
21.67
20.99
19.76
18.53
17.52
16.66
15.84
15.02
14.21
13.47
12.80
12.13
11.35
10.39
9.26
8.04
6.92
6.09
5.68
5.69
5.95
6.13
5.95
5.25
4.03
2.51
0.96
-0.37
-1.39
-2.14
-2.74
-3.31
-3.91
-4.50
-4.98
-5.29
-5.44
-5.49
-5.56
-5.68
-5.83
-5.87
-5.72
-5.37
-4.95
-4.71
-4.88
-5.55
-6.67
-7.97
-9.20
-10.19
-10.92
-11.57
-12.33
-13.36
-14.70
-16.25
-17.83
-19.20
-20.06
-20.00
-18.56
-15.40
-10.50
-4.28
2.41
8.53
13.16
15.84
16.61
15.98
14.61
13.13
11.87
10.95
10.29
9.78
9.32
8.84
8.34
7.80
7.21
6.54
5.81
5.05
4.34
3.75
3.31
2.98
2.71
2.39
1.96
1.37
0.69
0.02
-0.49
-0.74
-0.68
-0.37
0.01
0.26
0.25
-0.02
-0.53
-1.21
-2.01
-2.90
-3.81
-4.61
-5.17
-5.37
-5.28
-5.12
-5.19
-5.74
-6.79
-8.13
-9.39
-10.26
-10.66
-10.76
-10.94
-11.54
-12.71
-14.39
-16.30
-18.13
-19.49
-19.92
-18.89
-16.02
-11.21
-4.87
2.05
8.37
13.06
15.66
16.38
15.87
14.89
13.93
13.11
12.29
11.35
10.32
9.40
8.75
8.37
8.04
7.52
6.59
5.30
3.92
2.76
2.06
1.80
1.83
1.85
1.69
1.23
0.55
-0.20
-0.84
-1.26
-1.45
-1.53
-1.67
-1.95
-2.43
-2.99
-3.53
-3.93
-4.17
-4.31
-4.46
-4.72
-5.11
-5.63
-6.20
-6.74
-7.19
-7.54
-7.89
-8.44
-9.45
-11.07
-13.31
-15.98
-18.70
-20.96
-22.16
-21.70
-19.13
-14.34
-7.71
-0.19
7.05
12.87
16.64
18.33
18.44
17.65
16.49
15.19
13.78
12.26
10.78
9.56
8.86
8.66
8.75
8.73
8.31
7.40
6.21
5.09
4.32
3.96
3.85
3.66
3.16
2.31
1.24
0.20
-0.64
-1.27
-1.82
-2.43
-3.20
-4.09
-4.94
-5.60
-5.96
-6.06
-6.04
-6.07
-6.26
-6.69
-7.36
-8.28
-9.46
-10.86
-12.36
-13.63
-14.27
-13.92
-12.51
-10.29
-7.81
-5.63
-4.08
-3.12
-2.40
-1.52
-0.25
1.34
2.97
4.33
5.26
5.78
6.03
6.17
6.26
6.29
6.20
6.00
5.74
5.54
5.43
5.39
5.34
5.17
4.79
4.22
3.54
2.86
2.30
1.91
1.67
1.54
1.39
1.13
0.69
0.11
-0.51
-1.07
-1.49
-1.82
-2.15
-2.70
-3.54
-4.68
-5.95
-7.11
-7.98
-8.49
-8.81
-9.20
-10.00
-11.50
-13.78
-16.66
-19.61
-21.85
-22.43
-20.57
-15.98
-9.03
-0.78
7.28
13.79
17.93
19.65
19.61
18.72
17.76
17.08
16.59
15.98
15.01
13.71
12.34
11.26
10.67
10.51
10.51
10.31
9.69
8.60
7.25
5.93
4.90
4.22
3.79
3.41
2.83
1.90
0.66
-0.75
-2.10
-3.14
-3.79
-4.13
-4.44
-5.05
-6.23
-8.03
-10.25
-12.51
-14.35
-15.48
-15.88
-15.84
-15.89
-16.59
-18.33
-21.29
-25.34
-29.93
-34.21
-37.05
-37.28
-34.08
-27.34
-17.82
-7.00
3.32
11.67
17.33
20.46
21.82
22.36
22.76
23.30
23.88
24.28
24.38
24.18
23.77
23.30
22.81
22.28
21.61
20.72
19.56
18.19
16.76
15.39
14.14
12.99
11.77
10.31
8.53
6.48
4.36
2.47
1.03
0.12
-0.39
-0.80
-1.41
-2.41
-3.74
-5.16
-6.33
-6.99
-7.18
-7.17
-7.44
-8.38
-10.15
-12.51
-15.01
-17.09
-18.44
-19.03
-19.20
-19.50
-20.49
-22.59
-25.94
-30.28
-34.88
-38.60
-40.13
-38.31
-32.63
-23.48
-12.21
-0.69
9.23
16.38
20.54
22.36
22.89
23.12
23.60
24.40
25.26
25.91
26.18
26.04
25.57
24.79
23.70
22.33
20.72
19.00
17.39
16.06
15.10
14.46
13.91
13.13
11.88
10.01
7.67
5.20
3.07
1.61
0.95
0.84
0.86
0.57
-0.34
-1.88
-3.83
-5.82
-7.47
-8.54
-8.98
-9.05
-9.12
-9.64
-10.90
-12.88
-15.25
-17.46
-19.02
-19.74
-19.82
-19.79
-20.35
-22.04
-25.11
-29.36
-34.08
-38.10
-40.05
-38.69
-33.37
-24.41
-13.13
-1.45
8.70
16.03
20.25
21.96
22.19
21.94
21.81
21.96
22.31
22.70
23.03
23.29
23.41
23.34
23.00
22.35
21.46
20.42
19.36
18.38
17.51
16.75
16.01
15.14
13.96
12.34
10.25
7.87
5.50
3.49
2.05
1.10
0.36
-0.55
-1.89
-3.63
-5.48
-7.03
-7.94
-8.18
-8.02
-7.93
-8.36
-9.54
-11.39
-13.53
-15.49
-16.88
-17.51
-17.56
-17.47
-17.82
-19.13
-21.75
-25.72
-30.62
-35.70
-39.73
-41.41
-39.58
-33.84
-24.66
-13.49
-2.26
7.25
13.98
17.85
19.54
20.12
20.44
20.97
21.73
22.52
23.15
23.50
23.61
23.51
23.20
22.64
21.76
20.56
19.14
17.71
16.53
15.74
15.31
15.00
14.46
13.45
11.91
10.09
8.36
7.03
6.16
5.60
4.98
3.97
2.39
0.29
-2.03
-4.24
-6.05
-7.40
-8.42
-9.45
-10.83
-12.74
-15.09
-17.61
-19.96
-21.90
-23.44
-24.85
-26.52
-28.86
-32.17
-36.50
-41.54
-46.48
-50.21
-51.40
-48.98
-42.58
-32.80
-21.08
-9.35
0.69
8.09
12.82
15.54
17.18
18.49
19.83
21.21
22.46
23.52
24.36
25.08
25.74
26.29
26.59
26.53
26.01
25.10
23.97
22.86
21.95
21.32
20.83
20.21
19.09
17.18
14.42
11.03
7.49
4.33
1.89
0.15
-1.24
-2.84
-5.08
-8.11
-11.60
-15.05
-17.91
-19.93
-21.23
-22.28
-23.68
-25.93
-29.36
-33.95
-39.30
-44.56
-48.53
-49.87
-47.50
-41.01
-30.92
-18.58
-5.79
5.70
14.70
20.84
24.43
26.20
26.94
27.21
27.24
26.98
26.29
25.09
23.56
22.03
20.91
20.48
20.68
21.15
21.42
21.05
19.87
18.00
15.73
13.39
11.21
9.21
7.30
5.31
3.10
0.57
-2.25
-5.25
-8.31
-11.25
-14.00
-16.53
-18.94
-21.41
-24.21
-27.70
-32.24
-38.01
-44.78
-51.68
-57.23
-59.65
-57.49
-50.16
-38.37
-23.91
-9.06
4.06
14.22
21.23
25.74
28.71
30.99
32.97
34.60
35.57
35.67
34.90
33.60
32.27
31.37
31.08
31.24
31.43
31.16
30.14
28.37
26.01
23.32
20.48
17.51
14.32
10.82
6.98
2.89
-1.29
-5.39
-9.24
-12.73
-15.87
-18.71
-21.36
-24.05
-27.04
-30.67
-35.30
-41.12
-47.97
-55.10
-61.12
-64.28
-62.95
-56.28
-44.64
-29.60
-13.50
1.36
13.39
22.13
28.08
32.28
35.68
38.73
41.38
43.29
44.21
44.20
43.65
42.97
42.39
41.78
40.78
39.09
36.72
34.03
31.60
29.83
28.73
27.80
26.29
23.52
19.28
13.95
8.35
3.39
-0.39
-2.99
-4.99
-7.23
-10.39
-14.69
-19.77
-24.91
-29.37
-32.68
-34.89
-36.49
-38.25
-41.03
-45.45
-51.73
-59.40
-67.22
-73.33
-75.62
-72.43
-63.14
-48.58
-30.88
-12.84
3.03
15.22
23.54
28.93
32.78
36.28
39.96
43.67
46.92
49.20
50.38
50.64
50.36
49.83
49.14
48.22
46.94
45.29
43.44
41.65
40.11
38.83
37.62
36.10
33.90
30.76
26.69
21.97
17.13
12.77
9.30
6.81
5.02
3.40
1.41
-1.19
-4.38
-7.77
-10.90
-13.44
-15.28
-16.64
-17.92
-19.55
-21.83
-24.83
-28.29
-31.76
-34.77
-36.97
-38.35
-39.26
-40.30
-42.19
-45.52
-50.63
-57.25
-64.49
-70.78
-74.18
-72.91
-65.97
-53.60
-37.38
-19.75
-3.24
10.27
20.13
26.76
31.28
34.87
38.33
41.88
45.38
48.49
50.95
52.64
53.58
53.78
53.30
52.19
50.51
48.45
46.24
44.07
42.10
40.30
38.48
36.35
33.64
30.22
26.18
21.85
17.64
13.91
10.82
8.27
5.98
3.66
1.15
-1.47
-3.96
-6.07
-7.67
-8.83
-9.82
-10.93
-12.35
-14.03
-15.78
-17.28
-18.33
-18.95
-19.41
-20.12
-21.39
-23.33
-25.71
-28.13
-30.16
-31.61
-32.61
-33.56
-35.04
-37.55
-41.39
-46.46
-52.09
-57.16
-60.07
-59.25
-53.62
-43.14
-28.97
-13.21
1.75
13.97
22.60
27.85
30.76
32.61
34.35
36.35
38.47
40.30
41.44
41.72
41.25
40.29
39.05
37.62
35.95
33.95
31.68
29.33
27.20
25.55
24.43
23.59
22.64
21.19
19.08
16.39
13.47
10.68
8.31
6.44
4.98
3.70
2.38
0.87
-0.80
-2.53
-4.09
-5.34
-6.22
-6.92
-7.67
-8.74
-10.22
-12.00
-13.80
-15.28
-16.22
-16.65
-16.82
-17.07
-17.73
-18.90
-20.42
-21.94
-23.11
-23.76
-23.97
-24.09
-24.56
-25.80
-28.06
-31.40
-35.52
-39.74
-42.97
-43.83
-41.13
-34.33
-23.89
-11.32
1.30
11.99
19.56
23.85
25.61
25.88
25.66
25.45
25.42
25.50
25.61
25.70
25.72
25.62
25.29
24.62
23.56
22.11
20.42
18.71
17.17
15.95
15.05
14.34
13.51
12.31
10.59
8.40
6.05
3.87
2.13
0.89
0.02
-0.67
-1.41
-2.26
-3.19
-4.07
-4.77
-5.24
-5.52
-5.75
-6.05
-6.54
-7.27
-8.15
-9.01
-9.66
-9.99
-10.01
-9.91
-9.95
-10.35
-11.21
-12.42
-13.73
-14.91
-15.83
-16.51
-17.20
-18.17
-19.67
-21.82
-24.51
-27.39
-29.82
-30.94
-29.86
-25.96
-19.13
-10.06
-0.03
9.37
16.78
21.47
23.45
23.34
22.01
20.23
18.43
16.78
15.29
13.99
12.96
12.29
11.95
11.75
11.37
10.54
9.18
7.51
5.87
4.63
3.98
3.81
3.82
3.68
3.17
2.32
1.31
0.35
-0.38
-0.85
-1.11
-1.23
-1.28
-1.33
-1.45
-1.73
-2.24
-3.01
-3.99
-5.10
-6.16
-7.05
-7.68
-7.97
-7.94
-7.67
-7.33
-7.11
-7.22
-7.77
-8.74
-9.99
-11.27
-12.32
-13.02
-13.39
-13.66
-14.14
-15.11
-16.73
-18.94
-21.39
-23.50
-24.52
-23.71
-20.59
-15.15
-7.93
0.05
7.57
13.61
17.56
19.39
19.52
18.58
17.14
15.63
14.28
13.17
12.38
11.91
11.70
11.61
11.47
11.11
10.38
9.27
7.85
6.28
4.80
3.54
2.58
1.84
1.15
0.36
-0.60
-1.63
-2.52
-2.98
-2.87
-2.24
-1.31
-0.43
0.11
0.15
-0.29
-1.06
-1.95
-2.77
-3.38
-3.72
-3.84
-3.88
-4.03
-4.51
-5.45
-6.81
-8.42
-10.03
-11.32
-12.20
-12.71
-13.07
-13.57
-14.40
-15.70
-17.42
-19.39
-21.28
-22.56
-22.54
-20.57
-16.29
-9.90
-2.25
5.38
11.69
15.86
17.76
17.90
17.13
16.11
15.17
14.23
13.09
11.68
10.17
8.85
8.00
7.61
7.49
7.30
6.76
5.85
4.76
3.79
3.18
2.98
3.02
3.04
2.80
2.22
1.42
0.58
-0.03
-0.30
-0.33
-0.34
-0.66
-1.50
-2.90
-4.70
-6.57
-8.15
-9.22
-9.69
-9.78
-9.82
-10.25
-11.43
-13.52
-16.43
-19.78
-22.94
-25.14
-25.57
-23.65
-19.22
-12.65
-4.87
2.89
9.43
13.94
16.23
16.70
16.05
15.01
13.97
13.02
12.01
10.84
9.51
8.23
7.25
6.73
6.59
6.59
6.39
5.72
4.53
3.00
1.45
0.23
-0.48
-0.75
-0.86
-1.18
-2.06
-3.58
-5.56
-7.58
-9.19
-10.09
-10.28
-10.15
-10.22
-11.02
-12.87
-15.77
-19.45
-23.42
-26.95
-29.22
-29.35
-26.68
-21.05
-12.95
-3.57
5.57
13.08
18.14
20.69
21.28
20.71
19.69
18.66
17.73
16.88
16.02
15.14
14.26
13.40
12.57
11.75
10.92
10.01
8.98
7.81
6.47
4.99
3.41
1.83
0.32
-1.06
-2.31
-3.55
-4.91
-6.52
-8.41
-10.50
-12.60
-14.50
-16.05
-17.24
-18.25
-19.41
-21.09
-23.63
-27.27
-31.90
-37.07
-41.85
-45.00
-45.27
-41.86
-34.76
-24.87
-13.75
-3.12
5.74
12.25
16.63
19.57
21.86
24.05
26.32
28.47
30.21
31.32
31.75
31.68
31.38
31.04
30.69
30.18
29.27
27.88
26.08
24.16
22.41
20.99
19.83
18.68
17.25
15.39
13.17
10.84
8.71
7.05
5.97
5.34
4.91
4.38
3.47
2.12
0.44
-1.29
-2.75
-3.76
-4.30
-4.60
-4.98
-5.72
-6.94
-8.54
-10.25
-11.79
-12.95
-13.72
-14.26
-14.84
-15.70
-16.95
-18.54
-20.29
-21.95
-23.33
-24.36
-25.16
-25.99
-27.23
-29.23
-32.25
-36.35
-41.23
-46.19
-50.10
-51.57
-49.34
-42.80
-32.32
-19.31
-5.81
6.13
15.17
21.00
24.28
26.11
27.52
29.11
30.96
32.88
34.59
35.96
36.92
37.47
37.60
37.23
36.36
35.05
33.48
31.85
30.37
29.11
28.01
26.87
25.43
23.44
20.79
17.59
14.16
10.98
8.43
6.66
5.56
4.83
4.10
3.08
1.70
0.04
-1.68
-3.26
-4.50
-5.32
-5.73
-5.89
-6.01
-6.32
-6.97
-8.01
-9.33
-10.74
-12.08
-13.18
-14.07
-14.84
-15.68
-16.77
-18.13
-19.65
-21.10
-22.26
-23.08
-23.81
-24.82
-26.62
-29.52
-33.66
-38.85
-44.57
-49.94
-53.74
-54.67
-51.68
-44.48
-33.70
-20.93
-8.18
2.79
10.97
16.32
19.58
21.82
23.96
26.53
29.56
32.72
35.56
37.66
38.78
38.92
38.27
37.14
35.83
34.54
33.39
32.38
31.45
30.55
29.56
28.39
26.92
25.03
22.70
19.99
17.08
14.22
11.64
9.48
7.73
6.24
4.81
3.24
1.47
-0.44
-2.27
-3.81
-4.96
-5.81
-6.61
-7.63
-9.02
-10.68
-12.29
-13.53
-14.24
-14.57
-14.90
-15.71
-17.24
-19.45
-21.95
-24.22
-25.81
-26.60
-26.78
-26.83
-27.39
-29.02
-32.12
-36.61
-41.91
-46.82
-49.82
-49.39
-44.60
-35.52
-23.31
-9.91
2.61
12.69
19.69
23.88
26.12
27.38
28.41
29.54
30.76
31.95
32.95
33.65
34.05
34.15
33.95
33.43
32.59
31.46
30.12
28.77
27.48
26.27
24.98
23.35
21.20
18.57
15.74
13.10
11.00
9.51
8.44
7.45
6.28
4.88
3.41
2.08
1.01
0.07
-0.98
-2.42
-4.34
-6.61
-8.90
-10.86
-12.24
-13.06
-13.52
-14.01
-14.85
-16.21
-17.99
-19.93
-21.68
-23.00
-23.89
-24.55
-25.35
-26.67
-28.82
-31.99
-36.12
-40.74
-44.87
-47.09
-45.92
-40.37
-30.50
-17.55
-3.67
8.83
18.31
24.22
27.10
28.06
28.26
28.44
28.86
29.44
30.01
30.46
30.77
30.96
30.97
30.69
29.97
28.68
26.84
24.63
22.33
20.22
18.44
16.94
15.54
14.01
12.24
10.29
8.35
6.62
5.24
4.19
3.32
2.56
1.82
1.08
0.35
-0.47
-1.49
-2.85
-4.55
-6.46
-8.30
-9.78
-10.74
-11.28
-11.71
-12.41
-13.67
-15.56
-17.82
-20.05
-21.84
-22.99
-23.58
-23.94
-24.52
-25.79
-28.08
-31.47
-35.79
-40.39
-44.17
-45.72
-43.74
-37.51
-27.38
-14.76
-1.76
9.54
17.78
22.66
24.79
25.29
25.24
25.32
25.74
26.39
27.07
27.62
27.94
27.97
27.70
27.06
25.97
24.45
22.56
20.48
18.47
16.68
15.20
13.89
12.53
10.93
8.99
6.77
4.47
2.30
0.47
-0.89
-1.73
-2.09
-2.15
-2.18
-2.41
-3.07
-4.17
-5.55
-6.91
-8.02
-8.74
-9.11
-9.41
-9.88
-10.78
-12.13
-13.76
-15.35
-16.59
-17.32
-17.62
-17.80
-18.27
-19.37
-21.31
-24.07
-27.34
-30.55
-32.79
-33.01
-30.28
-24.23
-15.29
-4.75
5.60
14.15
19.93
22.90
23.73
23.38
22.58
21.68
20.66
19.45
18.06
16.75
15.80
15.31
15.13
14.91
14.29
13.07
11.38
9.55
7.95
6.78
6.03
5.38
4.45
2.98
0.97
-1.32
-3.44
-5.00
-5.81
-5.98
-5.86
-5.87
-6.37
-7.45
-8.94
-10.51
-11.79
-12.58
-12.91
-13.09
-13.54
-14.66
-16.68
-19.52
-22.82
-25.96
-28.10
-28.37
-26.14
-21.15
-13.79
-5.03
3.76
11.27
16.59
19.48
20.35
19.89
18.83
17.56
16.22
14.80
13.27
11.78
10.50
9.58
8.97
8.44
7.65
6.35
4.55
2.55
0.77
-0.45
-1.04
-1.31
-1.77
-2.94
-5.01
-7.81
-10.84
-13.54
-15.52
-16.74
-17.52
-18.40
-19.94
-22.61
-26.61
-31.87
-37.86
-43.67
-48.00
-49.48
-47.13
-40.75
-31.06
-19.62
-8.23
1.60
9.08
14.23
17.68
20.18
22.30
24.20
25.71
26.62
26.81
26.44
25.78
25.11
24.52
23.84
22.82
21.25
19.20
17.00
15.10
13.77
12.96
12.16
10.66
7.86
3.59
-1.73
-7.26
-12.06
-15.54
-17.68
-19.10
-20.74
-23.56
-28.18
-34.71
-42.65
-50.89
-57.79
-61.50
-60.41
-53.79
-42.11
-27.11
-11.26
3.04
14.27
22.06
27.16
30.76
33.90
37.10
40.29
43.07
45.03
45.97
45.96
45.25
44.11
42.72
41.17
39.53
37.85
36.25
34.80
33.57
32.51
31.45
30.17
28.39
25.96
22.84
19.17
15.28
11.55
8.35
5.79
3.73
1.73
-0.62
-3.62
-7.14
-10.81
-14.07
-16.50
-18.04
-19.00
-19.98
-21.54
-23.99
-27.22
-30.77
-34.01
-36.44
-37.90
-38.66
-39.34
-40.68
-43.42
-47.97
-54.30
-61.82
-69.18
-74.57
-76.03
-72.04
-62.17
-47.39
-29.92
-12.51
2.39
13.52
20.88
25.55
29.04
32.55
36.63
41.19
45.73
49.69
52.69
54.55
55.29
55.02
53.93
52.23
50.16
48.00
45.95
44.22
42.82
41.67
40.54
39.11
37.10
34.34
30.88
26.97
23.05
19.52
16.70
14.59
13.00
11.60
10.10
8.33
6.29
4.14
2.04
0.13
-1.53
-2.92
-4.17
-5.36
-6.62
-8.09
-9.79
-11.76
-13.88
-15.98
-17.84
-19.28
-20.23
-20.82
-21.37
-22.22
-23.72
-25.90
-28.53
-31.14
-33.23
-34.53
-35.18
-35.69
-36.82
-39.35
-43.71
-49.83
-56.87
-63.34
-67.32
-67.03
-61.41
-50.61
-35.99
-19.77
-4.33
8.51
17.95
24.23
28.26
31.17
33.82
36.63
39.63
42.52
44.95
46.64
47.45
47.47
46.86
45.82
44.52
43.04
41.43
39.75
38.06
36.41
34.77
33.02
30.95
28.43
25.46
22.22
18.98
16.05
13.56
11.47
9.62
7.81
5.95
3.97
1.90
-0.15
-2.06
-3.70
-5.00
-5.96
-6.72
-7.47
-8.44
-9.75
-11.35
-13.00
-14.42
-15.36
-15.75
-15.77
-15.79
-16.27
-17.52
-19.58
-22.14
-24.65
-26.54
-27.46
-27.50
-27.12
-27.03
-27.93
-30.28
-34.16
-39.19
-44.51
-48.82
-50.63
-48.64
-42.22
-31.76
-18.75
-5.25
6.68
15.72
21.50
24.60
26.03
26.81
27.58
28.59
29.82
31.12
32.31
33.23
33.74
33.66
32.96
31.70
30.03
28.19
26.37
24.73
23.32
22.07
20.82
19.38
17.59
15.39
12.88
10.30
7.97
6.16
4.95
4.21
3.64
2.89
1.72
0.07
-1.84
-3.69
-5.16
-6.05
-6.35
-6.29
-6.19
-6.37
-7.01
-8.10
-9.40
-10.57
-11.29
-11.43
-11.13
-10.79
-10.86
-11.66
-13.22
-15.21
-17.18
-18.67
-19.53
-19.94
-20.31
-21.21
-23.07
-26.08
-30.09
-34.57
-38.60
-40.96
-40.45
-36.19
-28.14
-17.15
-4.91
6.65
15.89
21.99
25.09
26.01
25.79
25.31
24.99
24.90
24.84
24.64
24.22
23.62
22.92
22.18
21.39
20.46
19.34
18.03
16.64
15.31
14.20
13.32
12.56
11.77
10.74
9.35
7.63
5.74
3.95
2.52
1.58
1.05
0.70
0.25
-0.43
-1.30
-2.20
-2.96
-3.57
-4.18
-4.97
-6.05
-7.33
-8.61
-9.64
-10.33
-10.73
-11.04
-11.52
-12.33
-13.46
-14.79
-16.04
-16.96
-17.43
-17.55
-17.66
-18.18
-19.48
-21.73
-24.84
-28.39
-31.66
-33.67
-33.43
-30.12
-23.53
-14.23
-3.53
6.85
15.37
21.10
23.96
24.55
23.77
22.40
20.92
19.50
18.18
17.05
16.25
15.89
15.89
16.03
15.92
15.29
14.06
12.35
10.47
8.75
7.37
6.37
5.63
5.00
4.33
3.54
2.63
1.62
0.63
-0.22
-0.81
-1.05
-1.05
-0.96
-1.06
-1.47
-2.20
-3.13
-4.07
-4.92
-5.67
-6.40
-7.17
-8.00
-8.89
-9.83
-10.87
-12.05
-13.28
-14.39
-15.18
-15.50
-15.44
-15.31
-15.49
-16.29
-17.80
-19.89
-22.19
-24.23
-25.35
-24.89
-22.24
-17.18
-10.05
-1.82
6.20
12.71
16.98
19.01
19.36
18.82
17.99
17.14
16.19
14.99
13.50
11.83
10.19
8.74
7.53
6.52
5.66
4.93
4.37
4.03
3.87
3.76
3.46
2.78
1.66
0.25
-1.15
-2.22
-2.78
-2.92
-2.94
-3.21
-4.00
-5.34
-7.01
-8.70
-10.13
-11.18
-11.94
-12.66
-13.64
-15.17
-17.42
-20.44
-23.95
-27.33
-29.57
-29.59
-26.57
-20.41
-11.85
-2.37
6.36
13.06
17.23
19.20
19.75
19.63
19.28
18.74
17.90
16.73
15.42
14.24
13.43
12.99
12.75
12.42
11.78
10.71
9.27
7.57
5.78
4.01
2.37
0.90
-0.38
-1.53
-2.65
-3.88
-5.35
-7.11
-9.10
-11.14
-13.01
-14.54
-15.69
-16.60
-17.61
-19.12
-21.46
-24.77
-28.92
-33.38
-37.33
-39.64
-39.23
-35.34
-27.90
-17.69
-6.17
4.96
14.17
20.68
24.52
26.27
26.81
26.86
26.80
26.65
26.29
25.63
24.73
23.72
22.75
21.86
20.89
19.66
18.06
16.23
14.48
13.20
12.61
12.58
12.66
12.29
11.07
8.98
6.39
3.85
1.81
0.42
-0.51
-1.34
-2.42
-3.94
-5.83
-7.80
-9.56
-10.89
-11.77
-12.46
-13.27
-14.51
-16.28
-18.43
-20.61
-22.44
-23.72
-24.55
-25.36
-26.74
-29.19
-33.02
-38.11
-43.87
-49.18
-52.55
-52.45
-47.85
-38.71
-26.15
-12.23
0.78
11.09
17.98
21.82
23.68
24.78
26.00
27.68
29.75
31.95
33.98
35.69
36.93
37.66
37.78
37.24
36.08
34.42
32.46
30.47
28.67
27.19
26.01
24.91
23.61
21.86
19.58
16.91
14.14
11.62
9.57
8.01
6.85
5.87
4.86
3.70
2.35
0.84
-0.71
-2.13
-3.22
-3.91
-4.28
-4.61
-5.23
-6.34
-7.89
-9.60
-11.11
-12.19
-12.84
-13.30
-13.88
-14.84
-16.25
-17.97
-19.71
-21.15
-22.05
-22.40
-22.39
-22.46
-23.11
-24.82
-27.89
-32.25
-37.37
-42.22
-45.38
-45.34
-41.02
-32.24
-19.99
-6.25
6.69
16.91
23.51
26.76
27.72
27.67
27.60
27.91
28.52
29.11
29.43
29.41
29.09
28.63
28.05
27.28
26.13
24.54
22.55
20.42
18.46
16.90
15.73
14.73
13.58
12.06
10.16
8.05
6.05
4.41
3.22
2.45
1.95
1.57
1.13
0.50
-0.45
-1.81
-3.54
-5.47
-7.31
-8.77
-9.63
-9.88
-9.79
-9.75
-10.19
-11.30
-12.97
-14.81
-16.29
-17.07
-17.11
-16.81
-16.75
-17.56
-19.60
-22.86
-26.97
-31.18
-34.50
-35.86
-34.31
-29.41
-21.38
-11.28
-0.73
8.55
15.34
19.26
20.76
20.80
20.35
19.94
19.67
19.30
18.61
17.59
16.47
15.50
14.79
14.23
13.59
12.63
11.30
9.79
8.33
7.17
6.32
5.63
4.84
3.76
2.36
0.78
-0.74
-1.92
-2.70
-3.18
-3.70
-4.60
-6.10
-8.14
-10.42
-12.53
-14.08
-15.04
-15.67
-16.47
-17.98
-20.54
-24.17
-28.48
-32.66
-35.67
-36.35
-33.83
-27.86
-18.99
-8.56
1.71
10.22
16.06
19.20
20.36
20.54
20.59
20.81
21.13
21.21
20.79
19.87
18.70
17.63
16.88
16.49
16.20
15.70
14.76
13.37
11.65
9.79
7.90
5.95
3.87
1.61
-0.78
-3.21
-5.59
-7.89
-10.17
-12.41
-14.57
-16.54
-18.26
-19.77
-21.25
-22.92
-25.02
-27.80
-31.40
-35.84
-40.81
-45.58
-48.91
-49.42
-46.06
-38.61
-27.93
-15.72
-3.97
5.77
12.84
17.57
20.91
23.84
26.94
30.17
33.08
35.15
36.14
36.16
35.58
34.81
34.05
33.22
32.13
30.62
28.77
26.83
25.12
23.84
22.91
21.96
20.51
18.17
14.81
10.61
6.09
1.86
-1.60
-4.07
-5.71
-7.01
-8.48
-10.56
-13.41
-16.88
-20.61
-24.14
-27.06
-29.17
-30.53
-31.51
-32.76
-35.00
-38.76
-44.11
-50.43
-56.51
-60.67
-61.36
-57.55
-49.12
-36.93
-22.65
-8.21
4.67
14.96
22.48
27.75
31.62
34.88
37.91
40.70
42.94
44.34
44.77
44.38
43.45
42.31
41.17
40.13
39.12
38.10
36.98
35.76
34.40
32.89
31.19
29.26
27.03
24.45
21.58
18.54
15.59
12.98
10.86
9.19
7.70
6.10
4.20
2.05
-0.10
-1.94
-3.30
-4.26
-5.06
-5.98
-7.16
-8.48
-9.69
-10.60
-11.22
-11.70
-12.42
-13.69
-15.67
-18.27
-21.19
-23.97
-26.27
-27.90
-28.95
-29.71
-30.58
-31.94
-34.16
-37.50
-42.09
-47.68
-53.48
-58.09
-59.80
-57.11
-49.41
-37.39
-22.97
-8.61
3.55
12.34
17.82
20.96
23.03
25.08
27.60
30.61
33.71
36.48
38.58
39.85
40.25
39.89
38.86
37.32
35.43
33.37
31.33
29.48
27.87
26.46
25.08
23.57
21.81
19.86
17.82
15.87
14.07
12.43
10.84
9.22
7.53
5.80
4.08
2.43
0.89
-0.56
-1.98
-3.44
-5.00
-6.66
-8.43
-10.20
-11.91
-13.49
-14.98
-16.50
-18.18
-20.06
-22.06
-23.96
-25.49
-26.51
-27.11
-27.62
-28.55
-30.42
-33.52
-37.72
-42.44
-46.58
-48.79
-47.81
-42.92
-34.24
-22.80
-10.29
1.46
11.03
17.79
21.91
24.07
25.20
25.98
26.81
27.75
28.69
29.45
29.91
30.01
29.75
29.14
28.22
27.03
25.59
23.96
22.21
20.40
18.61
16.88
15.17
13.44
11.60
9.61
7.51
5.41
3.47
1.79
0.37
-0.87
-2.05
-3.28
-4.61
-6.01
-7.46
-8.94
-10.54
-12.29
-14.21
-16.21
-18.15
-19.89
-21.41
-22.87
-24.54
-26.74
-29.72
-33.48
-37.61
-41.26
-43.23
-42.33
-37.80
-29.69
-18.91
-7.08
4.07
13.19
19.68
23.71
25.92
27.10
27.80
28.28
28.50
28.32
27.66
26.60
25.40
24.32
23.53
22.93
22.25
21.17
19.51
17.38
15.14
13.13
11.53
10.15
8.59
6.44
3.60
0.35
-2.77
-5.21
-6.77
-7.68
-8.51
-9.89
-12.20
-15.38
-18.94
-22.20
-24.57
-25.86
-26.30
-26.47
-27.09
-28.76
-31.80
-36.19
-41.48
-46.78
-50.82
-52.13
-49.47
-42.27
-31.00
-17.12
-2.75
10.05
19.88
26.35
30.02
31.93
33.13
34.19
35.25
36.02
36.17
35.57
34.31
32.72
31.16
29.85
28.81
27.84
26.66
25.10
23.14
20.88
18.54
16.27
14.09
11.88
9.46
6.73
3.72
0.65
-2.24
-4.68
-6.58
-8.01
-9.24
-10.57
-12.27
-14.50
-17.23
-20.24
-23.21
-25.73
-27.54
-28.63
-29.22
-29.79
-30.94
-33.26
-37.08
-42.29
-48.19
-53.50
-56.51
-55.59
-49.72
-38.98
-24.68
-9.01
5.61
17.34
25.46
30.31
32.94
34.54
35.91
37.32
38.60
39.48
39.76
39.49
38.84
38.03
37.12
36.10
34.82
33.24
31.43
29.54
27.74
26.08
24.39
22.37
19.78
16.58
13.00
9.49
6.50
4.30
2.81
1.68
0.41
-1.40
-3.94
-7.04
-10.34
-13.32
-15.57
-16.94
-17.61
-18.03
-18.72
-20.08
-22.14
-24.62
-26.97
-28.69
-29.54
-29.67
-29.57
-29.94
-31.49
-34.66
-39.43
-45.14
-50.43
-53.48
-52.48
-46.32
-35.12
-20.35
-4.44
10.06
21.26
28.55
32.46
34.24
35.15
36.00
37.00
37.94
38.53
38.63
38.31
37.75
37.08
36.30
35.23
33.67
31.48
28.77
25.84
23.10
20.85
19.11
17.63
15.98
13.81
10.98
7.69
4.32
1.33
-0.96
-2.48
-3.45
-4.27
-5.34
-6.90
-8.92
-11.11
-13.02
-14.26
-14.69
-14.49
-14.14
-14.18
-14.95
-16.46
-18.38
-20.23
-21.58
-22.30
-22.55
-22.72
-23.32
-24.78
-27.39
-31.13
-35.52
-39.59
-41.99
-41.30
-36.55
-27.68
-15.72
-2.53
9.75
19.42
25.63
28.50
28.87
27.79
26.17
24.55
23.11
21.84
20.75
19.93
19.50
19.47
19.65
19.65
19.03
17.57
15.39
12.95
10.87
9.52
8.92
8.63
8.08
6.76
4.54
1.68
-1.30
-3.85
-5.61
-6.49
-6.74
-6.76
-7.01
-7.77
-9.12
-10.88
-12.66
-14.06
-14.81
-14.99
-14.95
-15.26
-16.45
-18.85
-22.46
-26.95
-31.70
-35.78
-38.13
-37.63
-33.56
-25.84
-15.29
-3.52
7.57
16.39
22.15
25.03
25.85
25.60
24.93
24.10
23.05
21.75
20.31
19.04
18.17
17.73
17.46
16.94
15.85
14.14
12.10
10.19
8.75
7.83
7.17
6.32
4.95
3.00
0.75
-1.43
-3.25
-4.71
-6.06
-7.64
-9.74
-12.34
-15.21
-18.00
-20.42
-22.36
-23.88
-25.26
-26.84
-29.00
-32.02
-35.94
-40.30
-44.15
-46.12
-44.77
-39.26
-29.65
-17.11
-3.57
8.89
18.70
25.22
28.70
30.05
30.25
30.11
29.98
29.88
29.66
29.18
28.44
27.53
26.62
25.75
24.86
23.77
22.30
20.40
18.19
15.94
13.91
12.20
10.68
9.02
6.88
4.08
0.73
-2.73
-5.71
-7.75
-8.70
-8.89
-8.96
-9.62
-11.39
-14.29
-17.85
-21.33
-24.04
-25.64
-26.32
-26.68
-27.54
-29.63
-33.36
-38.69
-45.00
-51.08
-55.25
-55.82
-51.50
-42.06
-28.45
-12.73
2.61
15.44
24.58
30.08
32.85
34.17
35.05
35.94
36.78
37.28
37.23
36.62
35.65
34.50
33.26
31.81
30.03
27.88
25.54
23.32
21.50
20.21
19.29
18.42
17.22
15.44
13.04
10.13
6.96
3.76
0.72
-2.04
-4.50
-6.63
-8.46
-10.07
-11.56
-13.12
-14.96
-17.21
-19.81
-22.54
-25.03
-26.94
-28.13
-28.75
-29.23
-30.20
-32.26
-35.82
-40.91
-46.95
-52.73
-56.54
-56.62
-51.72
-41.73
-27.83
-12.21
2.58
14.52
22.70
27.41
29.72
30.97
32.12
33.57
35.24
36.80
37.95
38.59
38.73
38.46
37.84
36.84
35.40
33.54
31.34
28.97
26.67
24.59
22.78
21.15
19.54
17.76
15.75
13.53
11.23
9.08
7.21
5.68
4.41
3.18
1.75
-0.00
-2.12
-4.42
-6.68
-8.69
-10.28
-11.48
-12.40
-13.26
-14.27
-15.59
-17.27
-19.25
-21.39
-23.50
-25.33
-26.73
-27.60
-28.02
-28.26
-28.71
-29.90
-32.25
-35.89
-40.41
-44.81
-47.65
-47.41
-43.08
-34.52
-22.64
-9.20
3.78
14.58
22.27
26.85
29.04
29.87
30.18
30.39
30.57
30.51
30.09
29.31
28.32
27.32
26.38
25.50
24.52
23.36
21.96
20.44
18.93
17.57
16.33
15.09
13.67
11.92
9.89
7.68
5.51
3.54
1.82
0.25
-1.29
-2.90
-4.55
-6.12
-7.51
-8.68
-9.74
-10.85
-12.14
-13.66
-15.26
-16.72
-17.83
-18.50
-18.84
-19.16
-19.90
-21.51
-24.32
-28.34
-33.21
-38.04
-41.56
-42.40
-39.48
-32.45
-21.96
-9.54
2.90
13.57
21.46
26.36
28.80
29.63
29.63
29.28
28.77
28.15
27.39
26.57
25.71
24.84
23.93
22.88
21.59
20.04
18.29
16.49
14.80
13.31
12.03
10.79
9.39
7.66
5.64
3.55
1.71
0.40
-0.31
-0.60
-0.81
-1.34
-2.41
-4.03
-5.90
-7.67
-8.99
-9.75
-10.16
-10.61
-11.55
-13.22
-15.55
-18.10
-20.35
-21.89
-22.70
-23.13
-23.75
-25.11
-27.51
-30.94
-34.99
-38.91
-41.63
-42.00
-39.11
-32.65
-23.19
-12.10
-1.17
8.02
14.53
18.38
20.24
21.07
21.66
22.34
23.09
23.70
24.02
24.06
23.93
23.73
23.47
23.07
22.40
21.43
20.22
19.01
18.03
17.41
17.10
16.86
16.33
15.21
13.40
11.06
8.57
6.36
4.75
3.81
3.37
3.11
2.64
1.74
0.33
-1.46
-3.42
-5.24
-6.67
-7.62
-8.20
-8.68
-9.41
-10.56
-12.13
-13.86
-15.41
-16.54
-17.25
-17.77
-18.45
-19.67
-21.71
-24.71
-28.57
-32.75
-36.28
-37.78
-35.98
-30.13
-20.49
-8.42
4.02
14.78
22.47
26.72
28.15
27.81
26.77
25.76
25.04
24.59
24.23
23.81
23.23
22.43
21.37
20.00
18.32
16.34
14.18
11.99
9.99
8.35
7.18
6.40
5.77
5.03
3.95
2.56
1.05
-0.26
-1.19
-1.77
-2.23
-2.87
-3.87
-5.19
-6.58
-7.74
-8.48
-8.79
-8.90
-9.10
-9.56
-10.30
-11.08
-11.59
-11.62
-11.14
-10.44
-9.98
-10.24
-11.54
-13.91
-17.13
-20.72
-24.00
-26.10
-26.12
-23.35
-17.61
-9.48
-0.25
8.40
15.02
18.89
20.14
19.62
18.32
16.95
15.72
14.44
12.91
11.10
9.25
7.69
6.65
6.13
5.83
5.37
4.45
3.07
1.45
-0.03
-1.09
-1.62
-1.77
-1.85
-2.22
-3.08
-4.44
-6.13
-7.86
-9.33
-10.33
-10.86
-11.09
-11.31
-11.89
-13.13
-15.20
-18.11
-21.63
-25.33
-28.46
-30.12
-29.39
-25.68
-19.08
-10.42
-1.07
7.47
14.16
18.60
21.03
22.07
22.26
21.89
21.02
19.60
17.70
15.59
13.63
12.11
11.08
10.35
9.56
8.32
6.48
4.14
1.66
-0.49
-2.01
-2.86
-3.33
-3.95
-5.14
-7.06
-9.51
-12.01
-14.00
-15.19
-15.61
-15.72
-16.17
-17.53
-20.16
-24.06
-28.92
-34.03
-38.43
-40.92
-40.38
-36.13
-28.26
-17.75
-6.29
4.31
12.69
18.30
21.49
23.17
24.20
25.17
26.15
26.91
27.21
26.93
26.19
25.17
24.03
22.80
21.42
19.87
18.25
16.70
15.42
14.42
13.47
12.23
10.34
7.71
4.54
1.30
-1.47
-3.49
-4.77
-5.69
-6.75
-8.33
-10.51
-13.03
-15.46
-17.39
-18.72
-19.65
-20.66
-22.31
-25.11
-29.40
-35.10
-41.69
-48.05
-52.61
-53.73
-50.21
-41.84
-29.60
-15.49
-1.77
9.69
18.02
23.41
26.78
29.21
31.44
33.67
35.68
37.16
37.93
38.09
37.86
37.49
37.06
36.45
35.48
34.02
32.12
30.05
28.17
26.75
25.80
25.04
23.99
22.29
19.77
16.65
13.37
10.41
8.10
6.38
5.02
3.68
2.15
0.42
-1.32
-2.95
-4.41
-5.84
-7.42
-9.26
-11.28
-13.24
-14.83
-15.89
-16.41
-16.67
-17.02
-17.81
-19.20
-21.16
-23.42
-25.64
-27.48
-28.81
-29.69
-30.45
-31.59
-33.66
-37.08
-41.89
-47.51
-52.67
-55.63
-54.60
-48.44
-37.21
-22.30
-6.11
8.80
20.49
28.20
32.39
34.27
35.15
35.95
37.01
38.16
39.11
39.56
39.39
38.64
37.45
35.93
34.21
32.39
30.55
28.76
27.10
25.66
24.46
23.45
22.44
21.16
19.40
17.07
14.27
11.29
8.47
6.07
4.16
2.63
1.28
-0.08
-1.53
-3.07
-4.62
-6.16
-7.66
-9.10
-10.38
-11.37
-11.94
-12.08
-11.98
-11.96
-12.34
-13.30
-14.73
-16.32
-17.66
-18.45
-18.68
-18.61
-18.75
-19.64
-21.75
-25.27
-29.97
-35.06
-39.21
-40.87
-38.67
-32.03
-21.52
-8.82
3.84
14.37
21.55
25.29
26.37
25.92
24.87
23.71
22.54
21.32
20.09
19.00
18.25
17.85
17.59
17.19
16.34
14.97
13.24
11.45
9.90
8.77
8.02
7.47
6.82
5.80
4.24
2.14
-0.26
-2.55
-4.31
-5.21
-5.29
-4.94
-4.82
-5.48
-7.19
-9.71
-12.43
-14.66
-15.97
-16.41
-16.46
-16.78
-17.91
-20.12
-23.34
-27.23
-31.22
-34.48
-35.98
-34.72
-30.00
-21.94
-11.57
-0.58
9.21
16.55
21.08
23.28
23.99
23.96
23.52
22.67
21.33
19.57
17.67
15.96
14.62
13.63
12.80
11.95
10.97
9.93
8.87
7.80
6.60
5.17
3.50
1.69
-0.01
-1.37
-2.30
-2.93
-3.54
-4.38
-5.62
-7.22
-9.01
-10.77
-12.34
-13.75
-15.14
-16.71
-18.68
-21.28
-24.68
-28.97
-33.97
-39.04
-43.03
-44.50
-42.24
-35.77
-25.75
-13.80
-2.01
7.83
14.78
18.92
21.08
22.25
23.18
24.11
24.89
25.30
25.18
24.61
23.81
23.02
22.33
21.76
21.18
20.49
19.69
18.81
17.85
16.78
15.45
13.69
11.42
8.71
5.72
2.70
-0.21
-2.99
-5.75
-8.59
-11.54
-14.46
-17.13
-19.35
-21.11
-22.59
-24.17
-26.34
-29.52
-33.96
-39.52
-45.53
-50.77
-53.66
-52.73
-47.13
-37.10
-24.03
-10.01
2.85
13.04
20.12
24.56
27.34
29.41
31.34
33.19
34.74
35.68
35.85
35.33
34.34
33.15
31.96
30.82
29.65
28.32
26.80
25.13
23.42
21.82
20.38
18.99
17.40
15.35
12.63
9.27
5.47
1.68
-1.62
-4.11
-5.77
-6.91
-8.08
-9.83
-12.46
-15.93
-19.80
-23.50
-26.51
-28.59
-29.84
-30.66
-31.63
-33.32
-36.28
-40.79
-46.74
-53.34
-59.09
-62.01
-60.27
-52.89
-40.28
-24.28
-7.53
7.35
18.75
26.34
30.96
33.86
36.19
38.44
40.54
42.13
42.91
42.86
42.17
41.13
39.94
38.64
37.16
35.46
33.56
31.63
29.83
28.27
26.88
25.39
23.49
20.93
17.72
14.10
10.54
7.48
5.23
3.76
2.82
1.96
0.75
-1.03
-3.38
-6.05
-8.68
-10.92
-12.53
-13.54
-14.20
-14.89
-16.00
-17.70
-19.90
-22.26
-24.30
-25.68
-26.31
-26.50
-26.85
-28.02
-30.57
-34.70
-40.19
-46.23
-51.52
-54.47
-53.56
-47.93
-37.76
-24.39
-9.95
3.32
13.80
20.94
25.21
27.62
29.11
30.22
30.98
31.20
30.78
29.90
28.92
28.19
27.85
27.72
27.45
26.74
25.51
23.97
22.45
21.23
20.31
19.39
17.99
15.75
12.58
8.81
4.98
1.66
-0.84
-2.58
-3.93
-5.40
-7.39
-10.02
-13.16
-16.43
-19.45
-21.94
-23.86
-25.35
-26.80
-28.63
-31.32
-35.14
-40.01
-45.34
-49.92
-52.20
-50.63
-44.30
-33.39
-19.22
-3.97
10.04
21.10
28.53
32.71
34.68
35.52
35.93
36.13
36.00
35.33
34.14
32.59
30.99
29.56
28.27
26.93
25.32
23.29
20.95
18.54
16.36
14.52
12.98
11.48
9.81
7.85
5.72
3.64
1.83
0.37
-0.87
-2.11
-3.54
-5.20
-6.92
-8.45
-9.66
-10.61
-11.58
-12.90
-14.81
-17.20
-19.77
-22.06
-23.76
-24.82
-25.52
-26.38
-28.02
-30.92
-35.26
-40.74
-46.42
-50.83
-52.25
-49.23
-41.22
-28.93
-14.19
0.59
13.25
22.60
28.59
32.11
34.30
36.05
37.67
39.03
39.84
39.96
39.51
38.76
37.92
37.08
36.10
34.80
33.01
30.68
27.91
24.91
21.87
18.97
16.29
13.82
11.48
9.10
6.54
3.77
0.89
-1.92
-4.41
-6.39
-7.79
-8.65
-9.11
-9.34
-9.49
-9.70
-10.05
-10.55
-11.16
-11.80
-12.35
-12.80
-13.19
-13.66
-14.43
-15.65
-17.36
-19.42
-21.55
-23.41
-24.77
-25.65
-26.33
-27.29
-29.04
-31.93
-35.95
-40.71
-45.32
-48.61
-49.25
-46.14
-38.83
-27.72
-14.16
-0.09
12.54
22.28
28.64
31.96
33.27
33.62
33.75
33.95
34.13
34.12
33.81
33.28
32.66
32.05
31.39
30.49
29.16
27.36
25.21
22.98
20.93
19.23
17.81
16.50
15.04
13.25
11.13
8.82
6.57
4.59
2.95
1.52
0.07
-1.64
-3.70
-6.05
-8.54
-11.02
-13.51
-16.16
-19.14
-22.54
-26.24
-30.02
-33.59
-36.68
-39.11
-40.78
-41.68
-41.82
-41.24
-40.02
-38.17
-35.69
-32.45
-28.28
-23.03
-16.61
-9.05
-0.40
9.26
19.90
31.47
43.69
55.92
67.14
76.06
81.44
82.56
79.39
72.80
64.15
55.00
46.60
39.55
33.82
28.97
24.48
20.09
15.82
11.97
8.72
6.03
3.60
0.94
-2.38
-6.57
-11.65
-17.59
-24.45
-32.52
-42.11
-53.52
-66.67
-81.08
-95.89
-110.11
-122.97
-134.14
-143.80
-152.53
-160.93
-169.39
-177.86
-186.06
-193.62
-200.51
-207.09
-214.14
-222.68
-233.94
-249.26
-269.81
-296.00
-326.60
-358.29
-385.95
-404.13
-408.87
-399.32
-377.94
-349.45
-318.90
-289.84
-263.70
-240.21
-218.63
-198.54
-180.16
-163.82
-149.41
-136.14
-122.83
-108.55
-93.03
-76.77
-60.77
-45.97
-32.82
-21.17
-10.38
0.27
11.24
22.54
33.70
44.10
53.23
60.95
67.42
73.03
78.15
82.92
87.34
91.30
94.85
98.17
101.66
105.69
110.47
115.94
121.81
127.76
133.69
139.76
146.44
154.18
163.20
173.28
183.79
193.96
203.17
211.20
218.35
225.30
233.03
242.65
255.22
271.29
290.24
309.92
326.78
336.72
336.47
324.90
303.36
275.10
243.92
212.85
183.44
156.01
130.41
106.75
85.70
68.16
54.75
45.51
39.91
37.11
36.33
37.02
38.85
41.54
44.72
47.87
50.49
52.19
52.88
52.77
52.27
51.78
51.49
51.33
51.04
50.27
48.76
46.31
42.87
38.42
33.06
26.96
20.39
13.70
7.20
1.11
-4.56
-9.90
-15.09
-20.25
-25.41
-30.57
-35.72
-40.88
-45.98
-50.77
-54.89
-57.99
-59.95
-61.09
-62.13
-63.95
-67.15
-71.63
-76.40
-79.69
-79.39
-73.71
-61.78
-44.02
-22.05
1.71
24.72
44.94
61.20
73.29
81.76
87.57
91.75
95.28
98.85
102.80
107.13
111.48
115.33
118.13
119.55
119.49
118.14
115.87
113.06
110.09
107.19
104.52
102.07
99.75
97.38
94.73
91.61
87.87
83.43
78.27
72.49
66.21
59.64
52.99
46.43
40.05
33.76
27.29
20.11
11.62
1.37
-10.50
-22.98
-34.20
-41.84
-43.84
-39.14
-28.06
-12.23
5.93
23.88
39.49
51.31
58.61
61.33
60.07
55.99
50.65
45.62
42.07
40.44
40.38
40.98
41.11
39.81
36.58
31.42
24.91
17.98
11.74
7.13
4.58
3.87
4.19
4.38
3.43
0.77
-3.56
-9.11
-15.30
-21.71
-28.23
-34.90
-41.85
-49.03
-56.18
-62.80
-68.17
-71.48
-71.93
-69.02
-62.74
-53.69
-42.95
-31.73
-21.07
-11.50
-3.07
4.48
11.43
17.78
23.28
27.48
29.94
30.41
28.93
25.81
21.47
16.34
10.70
4.64
-1.78
-8.40
-14.84
-20.50
-24.81
-27.47
-28.67
-29.05
-29.42
-30.48
-32.45
-35.06
-37.69
-39.72
-40.83
-41.12
-41.09
-41.39
-42.62
-45.12
-48.88
-53.46
-57.98
-61.17
-61.60
-58.11
-50.23
-38.44
-24.08
-8.96
5.25
17.49
27.47
35.50
42.02
47.26
51.07
53.12
53.27
51.78
49.42
47.09
45.43
44.36
43.00
39.96
33.99
24.44
11.61
-3.42
-19.29
-34.83
-49.30
-62.41
-74.00
-83.84
-91.54
-96.73
-99.27
-99.34
-97.50
-94.49
-91.06
-87.93
-85.65
-84.68
-85.24
-87.28
-90.29
-93.31
-95.07
-94.29
-90.04
-82.03
-70.72
-57.15
-42.61
-28.33
-15.12
-3.39
6.87
15.84
23.70
30.47
36.01
40.09
42.53
43.37
42.81
41.29
39.29
37.26
35.53
34.26
33.47
33.00
32.60
31.91
30.59
28.42
25.36
21.60
17.47
13.22
8.95
4.51
-0.50
-6.57
-14.10
-23.23
-33.57
-44.08
-53.12
-58.67
-58.97
-53.13
-41.62
-26.25
-9.74
5.23
16.70
24.03
27.83
29.41
30.22
31.18
32.53
33.96
34.92
34.95
33.93
32.05
29.73
27.42
25.48
24.07
23.20
22.68
22.23
21.47
20.07
17.73
14.35
10.01
4.94
-0.57
-6.27
-12.10
-18.27
-25.19
-33.37
-43.08
-53.92
-64.59
-72.94
-76.55
-73.58
-63.57
-47.75
-28.76
-9.72
6.72
19.14
27.53
32.83
36.36
39.16
41.75
44.14
46.02
47.06
46.90
45.33
42.30
37.97
32.75
27.27
22.24
18.22
15.36
13.32
11.41
8.92
5.39
0.82
-4.37
-9.58
-14.39
-18.72
-22.94
-27.74
-33.91
-41.97
-51.90
-62.82
-72.92
-79.81
-81.11
-75.36
-62.57
-44.43
-23.73
-3.52
13.88
27.37
37.06
43.81
48.60
52.09
54.54
56.00
56.47
56.06
54.99
53.41
51.35
48.68
45.26
41.15
36.67
32.40
28.90
26.51
25.09
24.03
22.40
19.30
14.24
7.31
-0.81
-9.05
-16.45
-22.40
-26.94
-30.69
-34.66
-39.90
-47.12
-56.38
-66.87
-76.92
-84.22
-86.40
-81.78
-70.09
-52.65
-32.12
-11.66
6.13
19.83
29.42
35.85
40.34
43.87
46.85
49.23
50.80
51.39
51.01
49.88
48.30
46.51
44.68
42.84
40.94
38.89
36.62
34.09
31.20
27.90
24.11
19.86
15.26
10.57
6.00
1.72
-2.30
-6.18
-10.06
-14.01
-17.96
-21.80
-25.45
-28.93
-32.36
-35.97
-40.02
-44.81
-50.54
-57.06
-63.71
-69.15
-71.56
-69.16
-60.97
-47.33
-29.99
-11.60
5.22
18.63
28.07
34.03
37.57
39.65
40.78
41.07
40.44
38.92
36.81
34.58
32.64
31.13
29.88
28.57
26.92
24.88
22.67
20.66
19.12
18.10
17.31
16.26
14.46
11.63
7.81
3.33
-1.27
-5.44
-8.82
-11.37
-13.39
-15.36
-17.81
-21.01
-24.84
-28.91
-32.63
-35.55
-37.51
-38.74
-39.81
-41.40
-44.14
-48.40
-54.11
-60.65
-66.81
-70.92
-71.23
-66.38
-56.01
-41.02
-23.44
-5.84
9.52
21.30
29.38
34.49
37.72
39.89
41.36
42.08
41.95
41.06
39.74
38.43
37.40
36.69
36.11
35.42
34.50
33.39
32.24
31.12
30.01
28.71
26.97
24.60
21.51
17.74
13.42
8.73
3.88
-0.88
-5.32
-9.23
-12.49
-15.15
-17.33
-19.33
-21.43
-23.87
-26.76
-30.01
-33.35
-36.42
-38.86
-40.53
-41.58
-42.42
-43.68
-45.97
-49.75
-55.06
-61.36
-67.39
-71.37
-71.33
-65.80
-54.33
-37.86
-18.54
0.86
17.77
30.51
38.66
42.87
44.35
44.29
43.49
42.29
40.72
38.80
36.67
34.59
32.83
31.47
30.43
29.42
28.26
26.85
25.30
23.75
22.32
20.97
19.52
17.75
15.49
12.67
9.29
5.52
1.59
-2.17
-5.45
-8.06
-10.04
-11.65
-13.30
-15.37
-18.00
-21.11
-24.35
-27.38
-29.95
-31.95
-33.45
-34.72
-36.08
-37.96
-40.75
-44.68
-49.62
-54.88
-59.20
-60.96
-58.63
-51.32
-39.26
-23.82
-7.22
8.22
20.73
29.54
34.95
37.89
39.37
40.11
40.29
39.78
38.39
36.13
33.26
30.21
27.38
25.05
23.26
21.90
20.78
19.75
18.77
17.85
17.00
16.09
14.88
13.04
10.34
6.77
2.62
-1.51
-5.03
-7.60
-9.29
-10.61
-12.27
-14.84
-18.47
-22.80
-27.12
-30.69
-33.03
-34.17
-34.58
-35.03
-36.29
-38.94
-43.15
-48.54
-54.15
-58.47
-59.74
-56.49
-48.06
-34.96
-18.90
-2.27
12.61
24.14
31.82
36.09
37.90
38.23
37.72
36.73
35.43
33.95
32.44
30.96
29.48
27.83
25.84
23.42
20.71
18.00
15.61
13.76
12.37
11.14
9.62
7.46
4.53
1.04
-2.59
-5.87
-8.53
-10.60
-12.42
-14.45
-17.05
-20.32
-24.04
-27.80
-31.19
-33.93
-36.06
-37.89
-39.96
-42.93
-47.33
-53.36
-60.55
-67.63
-72.64
-73.41
-68.31
-56.93
-40.38
-21.09
-1.98
14.39
26.59
34.50
38.95
41.10
41.95
41.95
41.25
39.87
37.94
35.75
33.57
31.59
29.79
28.11
26.53
25.15
24.10
23.40
22.87
22.11
20.75
18.56
15.64
12.35
9.03
5.90
2.90
-0.22
-3.79
-7.94
-12.61
-17.49
-22.17
-26.27
-29.65
-32.38
-34.83
-37.53
-41.12
-46.15
-52.81
-60.65
-68.33
-73.77
-74.69
-69.36
-57.39
-40.07
-20.01
-0.31
16.48
29.01
37.28
42.15
44.73
45.82
45.86
45.03
43.53
41.67
39.82
38.25
36.99
35.92
34.85
33.71
32.61
31.74
31.21
30.92
30.48
29.36
27.12
23.63
19.16
14.31
9.68
5.66
2.26
-0.90
-4.35
-8.49
-13.37
-18.66
-23.77
-28.13
-31.48
-33.92
-35.96
-38.26
-41.51
-46.19
-52.35
-59.39
-65.90
-69.84
-69.02
-61.96
-48.58
-30.43
-10.34
8.57
23.85
34.47
40.70
43.68
44.65
44.49
43.57
42.04
40.00
37.68
35.35
33.23
31.37
29.74
28.24
26.85
25.60
24.59
23.80
23.08
22.10
20.51
18.07
14.77
10.85
6.70
2.73
-0.83
-3.98
-6.97
-10.08
-13.52
-17.23
-20.94
-24.26
-26.92
-28.90
-30.51
-32.34
-35.07
-39.25
-45.02
-51.88
-58.55
-63.13
-63.57
-58.38
-47.32
-31.62
-13.75
3.43
17.61
27.68
33.81
36.97
38.30
38.56
38.03
36.66
34.45
31.63
28.72
26.28
24.75
24.20
24.29
24.51
24.29
23.27
21.43
18.99
16.31
13.69
11.20
8.71
5.94
2.63
-1.32
-5.74
-10.26
-14.41
-17.83
-20.40
-22.33
-24.07
-26.16
-29.09
-33.16
-38.42
-44.61
-51.09
-56.72
-59.98
-59.29
-53.54
-42.64
-27.74
-10.99
5.16
18.66
28.43
34.46
37.43
38.26
37.65
36.00
33.52
30.50
27.36
24.58
22.45
20.95
19.73
18.35
16.50
14.25
11.92
9.92
8.43
7.20
5.67
3.22
-0.56
-5.58
-11.31
-16.97
-21.81
-25.46
-27.99
-29.99
-32.31
-35.83
-41.14
-48.23
-56.29
-63.70
-68.34
-68.21
-62.14
-50.27
-34.19
-16.45
0.25
13.86
23.46
29.22
31.99
32.78
32.39
31.26
29.61
27.59
25.34
22.99
20.64
18.30
16.02
13.91
12.13
10.85
10.10
9.69
9.18
8.00
5.65
1.92
-3.03
-8.70
-14.40
-19.56
-23.91
-27.57
-31.07
-35.18
-40.69
-48.14
-57.39
-67.38
-76.07
-80.91
-79.62
-71.12
-56.06
-36.77
-16.46
1.83
16.22
26.34
32.98
37.36
40.43
42.53
43.57
43.36
42.01
40.04
38.09
36.69
35.99
35.70
35.28
34.20
32.25
29.59
26.71
24.13
22.09
20.39
18.40
15.30
10.53
4.05
-3.51
-11.17
-17.95
-23.28
-27.27
-30.57
-34.15
-38.94
-45.62
-54.40
-64.79
-75.48
-84.40
-89.06
-87.34
-78.20
-62.33
-42.03
-20.47
-0.69
15.36
27.21
35.56
41.62
46.43
50.49
53.79
56.17
57.58
58.19
58.33
58.27
58.07
57.61
56.74
55.46
54.02
52.84
52.25
52.36
52.85
53.13
52.59
50.82
47.78
43.84
39.52
35.37
31.73
28.72
26.23
23.98
21.68
19.05
15.98
12.56
9.07
5.86
3.23
1.21
-0.45
-2.28
-4.80
-8.32
-12.74
-17.51
-21.90
-25.32
-27.60
-29.11
-30.67
-33.11
-36.96
-42.18
-48.13
-53.90
-58.66
-62.03
-64.22
-65.96
-68.24
-72.00
-77.92
-86.13
-95.94
-105.71
-112.92
-114.69
-108.69
-94.07
-72.07
-45.80
-19.28
3.84
21.45
33.29
40.61
45.22
48.64
51.60
54.16
56.12
57.35
58.03
58.45
58.82
59.11
59.11
58.57
57.41
55.83
54.20
52.85
51.90
51.16
50.26
48.81
46.56
43.51
39.90
36.07
32.38
29.01
26.02
23.29
20.65
17.96
15.13
12.19
9.13
5.97
2.70
-0.68
-4.06
-7.27
-10.13
-12.60
-14.87
-17.36
-20.54
-24.76
-30.02
-35.93
-41.81
-46.97
-50.98
-53.88
-56.21
-58.84
-62.75
-68.70
-76.96
-86.92
-97.01
-104.79
-107.53
-102.98
-90.34
-70.64
-46.59
-21.75
0.67
18.59
31.51
40.14
45.81
49.76
52.83
55.36
57.47
59.20
60.58
61.66
62.44
62.87
62.84
62.32
61.32
60.01
58.59
57.31
56.28
55.44
54.57
53.34
51.48
48.81
45.35
41.33
37.04
32.81
28.86
25.26
21.93
18.77
15.68
12.64
9.67
6.74
3.76
0.65
-2.66
-6.07
-9.37
-12.35
-14.97
-17.42
-20.14
-23.57
-27.89
-32.94
-38.19
-42.98
-46.81
-49.57
-51.59
-53.54
-56.21
-60.27
-66.13
-73.60
-81.75
-88.80
-92.36
-90.03
-80.33
-63.42
-41.28
-17.21
5.25
23.44
36.26
44.12
48.34
50.35
51.14
51.21
50.75
49.90
48.93
48.13
47.65
47.39
47.10
46.47
45.40
44.01
42.65
41.66
41.17
40.98
40.61
39.53
37.35
34.06
30.03
25.78
21.86
18.52
15.78
13.41
11.16
8.86
6.49
4.15
1.92
-0.16
-2.23
-4.45
-6.92
-9.60
-12.33
-14.86
-17.02
-18.83
-20.44
-22.19
-24.32
-26.95
-29.97
-33.08
-35.94
-38.30
-40.14
-41.71
-43.48
-45.99
-49.75
-55.07
-61.85
-69.49
-76.64
-81.40
-81.64
-75.68
-63.06
-44.90
-23.73
-2.74
15.23
28.55
37.01
41.55
43.57
44.24
44.22
43.68
42.65
41.22
39.69
38.50
37.99
38.22
38.90
39.53
39.64
39.03
37.82
36.40
35.15
34.22
33.42
32.35
30.56
27.78
24.04
19.63
14.97
10.51
6.57
3.29
0.58
-1.80
-4.19
-6.85
-9.88
-13.11
-16.21
-18.80
-20.68
-21.93
-22.91
-24.05
-25.75
-28.13
-31.03
-34.08
-36.85
-38.99
-40.38
-41.15
-41.70
-42.65
-44.62
-48.09
-53.06
-58.84
-63.89
-66.15
-63.60
-55.03
-40.67
-22.20
-2.36
15.96
30.60
40.65
46.34
48.64
48.62
47.11
44.56
41.28
37.63
34.06
31.07
29.01
27.96
27.68
27.75
27.70
27.24
26.31
25.08
23.83
22.71
21.72
20.61
18.97
16.51
13.09
8.89
4.32
-0.11
-3.94
-6.95
-9.21
-11.01
-12.80
-14.93
-17.57
-20.61
-23.76
-26.70
-29.22
-31.28
-33.04
-34.78
-36.84
-39.59
-43.33
-48.20
-53.94
-59.69
-63.96
-64.90
-60.88
-51.17
-36.38
-18.44
-0.03
16.24
28.62
36.59
40.68
41.95
41.49
40.02
37.94
35.43
32.75
30.25
28.29
27.06
26.48
26.22
25.88
25.17
23.99
22.47
20.76
18.85
16.60
13.72
10.04
5.64
0.86
-3.91
-8.39
-12.55
-16.58
-20.73
-25.04
-29.31
-33.16
-36.27
-38.56
-40.23
-41.80
-43.90
-47.11
-51.81
-57.93
-64.76
-70.85
-74.22
-72.82
-65.31
-51.66
-33.38
-13.14
6.05
21.78
32.88
39.46
42.53
43.33
42.82
41.51
39.52
36.95
34.02
31.16
28.80
27.26
26.55
26.44
26.62
26.82
26.91
26.83
26.46
25.57
23.87
21.16
17.50
13.16
8.58
4.12
-0.13
-4.32
-8.71
-13.49
-18.62
-23.85
-28.85
-33.34
-37.26
-40.76
-44.23
-48.21
-53.33
-60.10
-68.51
-77.77
-85.99
-90.64
-89.13
-79.96
-63.39
-41.62
-18.09
3.69
21.25
33.72
41.72
46.65
49.89
52.32
54.21
55.44
55.87
55.50
54.54
53.27
51.94
50.73
49.68
48.79
48.03
47.48
47.18
47.14
47.18
46.94
45.97
43.95
40.83
36.88
32.61
28.53
24.96
21.95
19.27
16.60
13.68
10.45
7.06
3.79
0.88
-1.60
-3.79
-5.97
-8.46
-11.39
-14.69
-18.06
-21.19
-23.95
-26.48
-29.12
-32.31
-36.27
-40.92
-45.88
-50.56
-54.50
-57.51
-59.83
-62.09
-65.17
-69.93
-76.90
-85.95
-96.01
-104.94
-109.97
-108.31
-98.27
-79.96
-55.52
-28.57
-3.05
17.99
33.15
42.73
48.13
51.07
52.90
54.37
55.71
56.87
57.77
58.37
58.69
58.74
58.56
58.13
57.47
56.64
55.78
55.11
54.79
54.85
55.04
54.89
53.89
51.73
48.44
44.44
40.31
36.57
33.46
30.90
28.55
26.06
23.21
20.05
16.81
13.83
11.32
9.24
7.32
5.18
2.54
-0.60
-3.93
-6.97
-9.38
-11.13
-12.62
-14.44
-17.15
-20.93
-25.56
-30.49
-35.16
-39.30
-43.04
-46.83
-51.29
-56.97
-64.23
-72.99
-82.64
-91.85
-98.64
-100.79
-96.49
-85.14
-67.78
-46.91
-25.75
-7.23
6.94
16.53
22.51
26.33
29.31
32.18
35.09
37.86
40.24
42.11
43.50
44.51
45.21
45.60
45.63
45.29
44.72
44.13
43.82
43.93
44.38
44.81
44.75
43.70
41.44
38.02
33.77
29.22
24.86
21.10
18.01
15.42
12.93
10.11
6.66
2.58
-1.77
-5.88
-9.30
-11.89
-13.94
-16.07
-18.95
-22.93
-27.87
-33.18
-38.05
-41.78
-44.16
-45.43
-46.33
-47.74
-50.56
-55.35
-62.20
-70.46
-78.64
-84.53
-85.67
-80.16
-67.40
-48.51
-26.24
-4.03
15.03
29.09
37.94
42.57
44.57
45.28
45.51
45.52
45.30
44.88
44.38
43.95
43.70
43.54
43.28
42.77
41.98
41.01
40.03
39.13
38.23
37.19
35.76
33.74
30.96
27.40
23.11
18.27
13.18
8.19
3.62
-0.32
-3.60
-6.38
-8.94
-11.62
-14.70
-18.33
-22.48
-26.95
-31.37
-35.34
-38.52
-40.82
-42.50
-44.15
-46.52
-50.34
-56.02
-63.34
-71.21
-77.73
-80.60
-77.73
-68.09
-52.16
-32.01
-10.64
8.87
24.35
35.00
41.23
44.21
45.18
44.97
44.01
42.49
40.58
38.63
37.06
36.20
36.07
36.36
36.56
36.22
35.18
33.62
31.99
30.69
29.83
29.07
27.75
25.23
21.16
15.76
9.76
4.12
-0.37
-3.47
-5.57
-7.51
-10.13
-13.94
-18.79
-24.04
-28.88
-32.72
-35.46
-37.51
-39.66
-42.72
-47.36
-53.93
-62.27
-71.54
-80.15
-85.86
-86.30
-79.77
-66.01
-46.58
-24.44
-3.06
14.73
27.57
35.60
40.06
42.38
43.66
44.37
44.59
44.30
43.64
42.86
42.25
41.92
41.83
41.81
41.68
41.32
40.70
39.82
38.71
37.38
35.83
34.01
31.82
29.15
25.84
21.85
17.24
12.27
7.33
2.85
-0.91
-3.95
-6.52
-9.12
-12.19
-16.04
-20.68
-25.82
-30.98
-35.66
-39.55
-42.58
-44.99
-47.29
-50.09
-54.06
-59.72
-67.18
-75.88
-84.38
-90.44
-91.54
-85.71
-72.41
-52.94
-30.17
-7.64
11.58
25.82
35.04
40.40
43.47
45.49
47.06
48.25
48.95
49.16
49.07
48.93
48.91
48.97
48.90
48.44
47.48
46.12
44.66
43.38
42.50
41.91
41.28
40.11
37.95
34.65
30.40
25.76
21.40
17.85
15.23
13.22
11.21
8.56
4.89
0.24
-4.91
-9.90
-14.07
-17.07
-18.93
-20.10
-21.28
-23.18
-26.28
-30.64
-35.85
-41.17
-45.85
-49.43
-51.93
-53.89
-56.17
-59.71
-65.19
-72.77
-81.76
-90.54
-96.63
-97.40
-90.80
-76.31
-55.34
-30.93
-6.85
13.70
28.91
38.68
44.17
47.00
48.60
49.76
50.79
51.68
52.44
53.08
53.65
54.13
54.41
54.34
53.80
52.80
51.49
50.11
48.90
47.95
47.16
46.25
44.85
42.68
39.68
36.03
32.08
28.20
24.68
21.59
18.88
16.39
13.98
11.50
8.89
6.09
3.09
-0.10
-3.44
-6.84
-10.12
-13.13
-15.77
-18.07
-20.23
-22.61
-25.56
-29.21
-33.43
-37.77
-41.69
-44.80
-47.05
-48.83
-50.81
-53.76
-58.28
-64.62
-72.43
-80.58
-87.14
-89.66
-85.93
-74.77
-56.75
-34.18
-10.52
10.76
27.28
38.26
44.42
47.25
48.28
48.54
48.48
48.23
47.86
47.51
47.33
47.40
47.57
47.54
46.99
45.78
44.01
42.05
40.36
39.26
38.76
38.55
38.11
36.89
34.53
30.97
26.52
21.67
17.01
12.98
9.74
7.07
4.53
1.63
-1.91
-5.99
-10.15
-13.78
-16.41
-18.02
-19.02
-20.13
-22.05
-25.09
-29.08
-33.42
-37.36
-40.34
-42.16
-43.14
-43.94
-45.37
-48.16
-52.75
-59.04
-66.32
-73.14
-77.46
-77.12
-70.57
-57.51
-39.19
-18.23
2.18
19.31
31.60
38.98
42.45
43.44
43.16
42.27
40.98
39.32
37.40
35.51
34.01
33.16
33.01
33.33
33.79
34.07
33.98
33.51
32.74
31.75
30.49
28.85
26.64
23.78
20.38
16.72
13.14
9.87
6.94
4.10
1.07
-2.35
-6.08
-9.78
-13.09
-15.79
-18.02
-20.18
-22.80
-26.16
-30.25
-34.67
-38.89
-42.45
-45.16
-47.20
-49.07
-51.47
-55.14
-60.59
-67.76
-75.66
-82.33
-85.19
-81.83
-71.00
-53.33
-31.24
-8.28
12.08
27.60
37.69
43.22
45.72
46.66
46.93
46.85
46.46
45.75
44.85
43.97
43.27
42.79
42.41
41.97
41.33
40.45
39.43
38.42
37.58
36.91
36.25
35.27
33.59
30.99
27.49
23.42
19.27
15.55
12.59
10.44
8.83
7.29
5.31
2.51
-1.15
-5.39
-9.63
-13.28
-15.95
-17.70
-19.05
-20.76
-23.50
-27.53
-32.55
-37.82
-42.47
-45.87
-47.92
-49.09
-50.24
-52.39
-56.40
-62.70
-71.04
-80.25
-88.29
-92.50
-90.40
-80.56
-63.33
-40.96
-16.94
5.12
22.61
34.56
41.53
44.96
46.44
47.13
47.61
48.06
48.45
48.76
48.97
49.09
49.11
48.99
48.66
48.09
47.27
46.28
45.30
44.47
43.86
43.34
42.62
41.36
39.32
36.47
33.05
29.44
25.98
22.85
20.06
17.46
14.86
12.10
9.08
5.80
2.32
-1.28
-4.83
-8.20
-11.26
-13.98
-16.43
-18.76
-21.19
-23.91
-27.06
-30.65
-34.50
-38.29
-41.60
-44.15
-45.92
-47.29
-48.96
-51.77
-56.38
-62.87
-70.52
-77.65
-81.98
-81.18
-73.67
-59.30
-39.55
-17.24
4.36
22.51
35.67
43.73
47.60
48.69
48.29
47.32
46.28
45.40
44.77
44.39
44.23
44.19
44.15
43.90
43.29
42.20
40.70
38.99
37.33
35.90
34.65
33.25
31.30
28.48
24.80
20.55
16.22
12.17
8.54
5.15
1.73
-1.88
-5.62
-9.19
-12.29
-14.76
-16.72
-18.58
-20.80
-23.73
-27.38
-31.48
-35.50
-38.99
-41.67
-43.64
-45.27
-47.15
-49.92
-54.07
-59.70
-66.25
-72.38
-76.10
-75.26
-68.34
-55.13
-37.05
-16.78
2.56
18.50
29.78
36.54
39.77
40.71
40.26
38.94
37.00
34.65
32.30
30.33
29.06
28.52
28.45
28.48
28.24
27.60
26.60
25.52
24.53
23.65
22.60
20.93
18.26
14.50
9.95
5.19
0.81
-2.87
-5.97
-8.93
-12.33
-16.49
-21.33
-26.40
-31.11
-34.96
-37.86
-40.19
-42.67
-46.24
-51.62
-59.05
-67.93
-76.73
-83.15
-84.74
-79.66
-67.49
-49.49
-28.38
-7.47
10.43
23.75
32.40
37.38
40.08
41.63
42.55
42.90
42.59
41.69
40.54
39.58
39.13
39.23
39.58
39.73
39.34
38.30
36.84
35.36
34.18
33.35
32.52
31.09
28.48
24.42
19.10
13.15
7.42
2.59
-1.05
-3.76
-6.23
-9.23
-13.33
-18.61
-24.62
-30.62
-35.86
-39.97
-43.12
-45.97
-49.47
-54.57
-61.85
-71.40
-82.49
-93.55
-102.25
-106.00
-102.68
-91.41
-73.10
-50.32
-26.51
-4.94
12.26
24.53
32.62
37.97
41.95
45.48
48.92
52.24
55.19
57.56
59.21
60.14
60.42
60.17
59.49
58.49
57.30
56.09
55.05
54.32
53.87
53.44
52.62
50.98
48.27
44.49
39.91
34.94
30.04
25.59
21.81
18.73
16.16
13.79
11.24
8.22
4.66
0.70
-3.30
-6.98
-10.12
-12.72
-15.08
-17.67
-20.98
-25.31
-30.65
-36.62
-42.64
-48.07
-52.52
-55.96
-58.81
-61.82
-65.90
-71.90
-80.26
-90.63
-101.56
-110.54
-114.53
-110.93
-98.60
-78.49
-53.51
-27.51
-4.10
14.44
27.55
36.06
41.49
45.32
48.61
51.91
55.40
58.98
62.43
65.43
67.66
68.88
69.04
68.25
66.79
65.04
63.38
62.10
61.26
60.70
60.00
58.70
56.43
53.08
48.90
44.38
40.11
36.48
33.63
31.36
29.29
27.01
24.30
21.14
17.80
14.60
11.80
9.40
7.15
4.64
1.49
-2.37
-6.73
-11.08
-14.92
-18.00
-20.46
-22.82
-25.69
-29.48
-34.15
-39.21
-43.97
-47.85
-50.65
-52.71
-54.73
-57.61
-62.11
-68.64
-76.93
-85.90
-93.57
-97.41
-94.99
-84.94
-67.59
-45.13
-20.95
1.35
19.19
31.60
39.17
43.39
45.86
47.68
49.29
50.67
51.67
52.24
52.45
52.46
52.34
52.02
51.33
50.16
48.56
46.76
45.13
43.95
43.25
42.73
41.82
39.91
36.62
31.99
26.55
21.11
16.48
13.18
11.20
10.04
8.92
7.08
4.12
0.11
-4.45
-8.82
-12.43
-15.06
-16.99
-18.87
-21.45
-25.18
-30.02
-35.42
-40.52
-44.60
-47.33
-48.98
-50.26
-52.10
-55.38
-60.60
-67.69
-75.74
-83.00
-87.10
-85.70
-77.26
-61.90
-41.45
-19.04
1.89
18.80
30.58
37.63
41.29
42.99
43.79
44.16
44.15
43.76
43.09
42.39
41.93
41.83
41.98
42.10
41.89
41.18
40.03
38.74
37.62
36.84
36.26
35.48
33.97
31.33
27.51
22.85
18.01
13.70
10.35
7.99
6.20
4.33
1.79
-1.63
-5.74
-9.98
-13.73
-16.59
-18.58
-20.18
-22.11
-24.98
-29.04
-34.06
-39.37
-44.18
-47.90
-50.45
-52.23
-54.06
-56.87
-61.38
-67.86
-75.89
-84.19
-90.70
-92.95
-88.78
-77.14
-58.66
-35.72
-11.74
9.83
26.61
37.81
44.14
47.16
48.46
49.11
49.57
49.89
49.98
49.88
49.76
49.77
49.93
50.06
49.87
49.13
47.76
45.98
44.15
42.63
41.56
40.78
39.85
38.29
35.70
32.04
27.59
22.85
18.41
14.69
11.86
9.82
8.25
6.73
4.90
2.56
-0.32
-3.56
-6.84
-9.82
-12.29
-14.21
-15.82
-17.54
-19.81
-22.96
-26.96
-31.47
-35.92
-39.76
-42.70
-44.85
-46.75
-49.12
-52.75
-58.16
-65.34
-73.54
-81.17
-85.92
-85.37
-77.77
-62.82
-42.07
-18.57
4.07
22.83
36.11
43.99
47.75
49.11
49.49
49.69
49.94
50.18
50.30
50.23
49.95
49.36
48.32
46.77
44.80
42.72
40.98
39.95
39.70
39.95
40.06
39.36
37.36
33.94
29.35
24.07
18.60
13.36
8.61
4.46
0.91
-2.08
-4.67
-7.07
-9.50
-12.12
-14.99
-17.99
-20.90
-23.48
-25.52
-26.93
-27.80
-28.35
-28.96
-30.01
-31.77
-34.25
-37.19
-40.08
-42.40
-43.84
-44.48
-44.79
-45.49
-47.31
-50.81
-56.11
-62.67
-69.25
-73.92
-74.47
-69.06
-56.99
-39.20
-18.16
2.86
20.80
33.80
41.51
44.88
45.44
44.58
43.17
41.55
39.77
37.90
36.13
34.72
33.85
33.47
33.37
33.18
32.66
31.75
30.63
29.57
28.75
28.06
27.02
24.99
21.49
16.49
10.54
4.59
-0.45
-4.08
-6.46
-8.30
-10.48
-13.70
-18.13
-23.38
-28.68
-33.26
-36.61
-38.78
-40.27
-41.98
-44.84
-49.57
-56.39
-64.84
-73.62
-80.70
-83.70
-80.58
-70.34
-53.58
-32.49
-10.34
9.63
25.11
35.27
40.73
42.90
43.26
42.87
42.19
41.28
40.16
38.91
37.73
36.79
36.11
35.56
34.92
34.07
33.05
31.99
31.01
30.04
28.79
26.84
23.83
19.69
14.65
9.23
3.99
-0.71
-4.85
-8.74
-12.83
-17.51
-22.82
-28.50
-33.99
-38.76
-42.55
-45.56
-48.47
-52.21
-57.68
-65.36
-74.93
-85.01
-93.32
-97.11
-94.11
-83.30
-65.56
-43.42
-20.33
0.47
16.88
28.41
35.83
40.56
43.96
46.88
49.57
51.89
53.62
54.64
55.02
54.98
54.67
54.17
53.41
52.32
50.93
49.41
48.04
46.98
46.15
45.13
43.38
40.53
36.57
31.94
27.29
23.19
19.86
17.08
14.31
11.06
7.06
2.50
-2.12
-6.29
-9.77
-12.73
-15.76
-19.53
-24.50
-30.66
-37.56
-44.46
-50.66
-55.77
-59.83
-63.41
-67.39
-72.78
-80.36
-90.22
-101.35
-111.51
-117.70
-116.98
-107.57
-89.67
-65.57
-38.94
-13.64
7.46
23.17
33.90
41.08
46.27
50.66
54.81
58.77
62.41
65.53
68.01
69.75
70.72
70.95
70.50
69.50
68.16
66.73
65.43
64.37
63.51
62.62
61.36
59.39
56.52
52.75
48.32
43.62
39.08
35.05
31.65
28.82
26.29
23.74
20.85
17.45
13.52
9.22
4.83
0.66
-3.03
-6.18
-8.91
-11.60
-14.71
-18.64
-23.57
-29.28
-35.22
-40.74
-45.31
-48.76
-51.35
-53.73
-56.73
-61.21
-67.80
-76.59
-86.78
-96.51
-103.04
-103.47
-95.74
-79.63
-57.05
-31.56
-7.21
12.85
27.18
36.13
41.16
43.93
45.60
46.66
47.15
47.11
46.72
46.32
46.21
46.39
46.58
46.36
45.41
43.68
41.49
39.33
37.64
36.61
35.96
35.14
33.44
30.35
25.75
20.03
13.99
8.51
4.23
1.30
-0.68
-2.59
-5.30
-9.39
-14.82
-20.98
-26.89
-31.72
-35.10
-37.33
-39.26
-41.98
-46.50
-53.39
-62.59
-73.16
-83.29
-90.43
-91.91
-85.81
-71.75
-51.27
-27.57
-4.45
14.88
28.73
37.21
41.66
43.88
45.24
46.44
47.47
48.10
48.16
47.76
47.18
46.74
46.56
46.51
46.27
45.55
44.31
42.78
41.44
40.64
40.44
40.43
39.86
38.01
34.52
29.62
24.10
18.99
15.08
12.62
11.20
9.97
8.02
4.86
0.55
-4.29
-8.80
-12.38
-14.87
-16.69
-18.62
-21.45
-25.67
-31.22
-37.55
-43.84
-49.28
-53.40
-56.22
-58.30
-60.56
-64.13
-69.93
-78.37
-88.92
-99.92
-108.69
-112.11
-107.66
-94.32
-73.23
-47.41
-20.88
2.65
20.86
33.24
40.74
45.04
47.78
50.03
52.26
54.53
56.73
58.69
60.27
61.30
61.63
61.19
60.03
58.36
56.50
54.80
53.53
52.73
52.20
51.49
50.14
47.83
44.54
40.58
36.43
32.62
29.43
26.86
24.57
22.13
19.19
15.72
11.99
8.47
5.52
3.18
1.18
-0.99
-3.74
-7.16
-10.95
-14.60
-17.68
-20.10
-22.19
-24.46
-27.46
-31.43
-36.18
-41.22
-45.94
-49.83
-52.68
-54.73
-56.62
-59.22
-63.49
-70.14
-79.23
-89.85
-99.95
-106.61
-106.80
-98.50
-81.55
-58.01
-31.61
-6.52
13.99
28.43
37.23
41.98
44.59
46.43
48.10
49.63
50.83
51.63
52.14
52.54
52.92
53.23
53.28
52.87
52.03
50.98
50.09
49.69
49.83
50.19
50.23
49.31
47.09
43.62
39.40
35.09
31.34
28.45
26.38
24.72
22.97
20.77
17.97
14.78
11.59
8.80
6.60
4.88
3.25
1.26
-1.41
-4.78
-8.58
-12.35
-15.70
-18.48
-20.87
-23.26
-26.08
-29.60
-33.72
-38.05
-42.03
-45.19
-47.36
-48.79
-50.12
-52.23
-55.95
-61.81
-69.69
-78.53
-86.32
-90.37
-88.13
-78.07
-60.44
-37.50
-12.85
9.67
27.27
38.84
45.01
47.40
47.84
47.58
47.21
46.86
46.48
46.12
45.88
45.85
45.95
45.97
45.63
44.80
43.55
42.09
40.76
39.79
39.19
38.70
37.85
36.13
33.20
29.09
24.15
19.02
14.33
10.49
7.49
4.97
2.38
-0.71
-4.40
-8.45
-12.36
-15.62
-18.03
-19.75
-21.29
-23.27
-26.14
-29.92
-34.19
-38.27
-41.48
-43.51
-44.54
-45.20
-46.38
-48.87
-53.17
-59.16
-66.02
-72.17
-75.50
-73.94
-66.07
-51.88
-32.96
-12.13
7.41
23.13
33.86
39.86
42.34
42.69
41.96
40.66
38.90
36.70
34.19
31.61
29.25
27.31
25.87
24.87
24.15
23.53
22.79
21.82
20.55
19.01
17.20
15.08
12.54
9.49
5.88
1.78
-2.65
-7.23
-11.79
-16.25
-20.51
-24.55
-28.26
-31.63
-34.72
-37.74
-41.06
-45.17
-50.57
-57.44
-65.36
-73.07
-78.49
-79.27
-73.59
-60.95
-42.63
-21.35
-0.46
17.17
29.97
37.87
41.89
43.44
43.68
43.26
42.36
40.96
39.08
36.85
34.52
32.35
30.55
29.18
28.16
27.31
26.37
25.13
23.45
21.35
18.93
16.29
13.46
10.36
6.86
2.77
-2.00
-7.40
-13.24
-19.20
-24.86
-29.88
-34.09
-37.62
-40.86
-44.43
-49.04
-55.27
-63.29
-72.64
-81.93
-89.03
-91.47
-87.19
-75.44
-57.22
-35.16
-12.67
7.14
22.39
32.75
39.17
43.09
45.77
47.91
49.70
51.05
51.89
52.20
52.04
51.52
50.68
49.60
48.36
47.11
45.91
44.84
43.82
42.75
41.47
39.84
37.74
35.13
31.98
28.31
24.13
19.54
14.63
9.58
4.56
-0.19
-4.50
-8.28
-11.56
-14.58
-17.73
-21.45
-26.02
-31.48
-37.48
-43.41
-48.65
-52.85
-56.16
-59.25
-63.16
-68.96
-77.33
-88.06
-99.73
-109.82
-115.15
-112.97
-101.89
-82.66
-57.99
-31.79
-7.80
11.45
25.17
34.08
39.67
43.49
46.58
49.47
52.27
54.96
57.48
59.75
61.69
63.12
63.89
63.90
63.20
61.98
60.58
59.37
58.55
58.08
57.63
56.68
54.76
51.63
47.46
42.76
38.22
34.42
31.65
29.76
28.30
26.69
24.53
21.74
18.60
15.56
13.02
11.14
9.65
8.04
5.72
2.36
-2.00
-6.88
-11.63
-15.68
-18.84
-21.35
-23.82
-26.91
-31.00
-36.07
-41.61
-46.95
-51.45
-54.84
-57.34
-59.57
-62.44
-66.87
-73.56
-82.51
-92.79
-102.30
-108.10
-107.15
-97.44
-78.89
-53.66
-25.62
0.89
22.47
37.56
46.55
51.12
53.30
54.70
56.12
57.72
59.27
60.52
61.34
61.72
61.66
61.17
60.23
58.82
57.05
55.10
53.24
51.70
50.56
49.66
48.64
47.05
44.54
41.02
36.72
32.13
27.78
24.01
20.93
18.35
15.99
13.58
11.00
8.24
5.34
2.31
-0.86
-4.15
-7.47
-10.68
-13.64
-16.35
-18.97
-21.78
-25.07
-28.98
-33.41
-38.01
-42.33
-45.91
-48.51
-50.19
-51.40
-52.87
-55.50
-60.03
-66.78
-75.22
-83.83
-90.16
-91.45
-85.55
-71.77
-51.46
-27.66
-4.18
15.64
29.89
38.44
42.48
43.75
43.67
43.03
42.02
40.64
38.98
37.39
36.30
36.03
36.55
37.51
38.37
38.63
38.09
36.86
35.30
33.78
32.46
31.20
29.58
27.14
23.55
18.86
13.47
8.04
3.24
-0.52
-3.23
-5.35
-7.56
-10.57
-14.74
-19.99
-25.75
-31.27
-35.86
-39.20
-41.47
-43.25
-45.39
-48.75
-53.97
-61.32
-70.42
-80.05
-88.15
-92.12
-89.57
-79.19
-61.46
-38.74
-14.57
7.42
24.74
36.51
43.40
46.90
48.48
49.13
49.20
48.71
47.66
46.23
44.71
43.42
42.51
41.92
41.49
40.97
40.21
39.18
37.97
36.72
35.56
34.43
33.15
31.42
28.93
25.48
21.07
15.93
10.43
5.08
0.30
-3.64
-6.75
-9.35
-11.99
-15.21
-19.35
-24.31
-29.66
-34.71
-38.91
-42.07
-44.46
-46.75
-49.83
-54.49
-61.28
-70.19
-80.41
-90.23
-97.13
-98.38
-91.93
-77.30
-55.98
-31.19
-6.76
14.00
29.27
39.00
44.41
47.20
48.80
49.99
51.01
51.83
52.39
52.71
52.84
52.74
52.33
51.48
50.15
48.51
46.84
45.47
44.61
44.24
44.04
43.46
41.96
39.20
35.20
30.37
25.34
20.73
16.82
13.54
10.52
7.32
3.68
-0.30
-4.26
-7.80
-10.72
-13.17
-15.64
-18.70
-22.77
-27.86
-33.53
-39.08
-43.78
-47.23
-49.57
-51.43
-53.82
-57.80
-64.14
-72.82
-82.77
-91.80
-96.95
-95.35
-85.25
-66.87
-42.55
-16.13
8.28
27.63
40.70
48.10
51.57
53.05
53.97
54.96
56.06
57.06
57.83
58.34
58.66
58.76
58.50
57.67
56.13
53.94
51.44
49.12
47.42
46.46
45.95
45.26
43.66
40.65
36.18
30.72
25.04
19.90
15.76
12.56
9.86
6.96
3.31
-1.25
-6.48
-11.72
-16.25
-19.53
-21.48
-22.52
-23.41
-24.97
-27.71
-31.61
-36.15
-40.55
-44.03
-46.23
-47.29
-47.86
-48.84
-51.14
-55.37
-61.46
-68.57
-74.95
-78.31
-76.49
-68.16
-53.58
-34.62
-14.28
4.30
18.86
28.59
34.10
36.74
37.87
38.33
38.33
37.76
36.57
35.00
33.52
32.52
32.14
32.10
31.92
31.12
29.55
27.37
25.02
22.89
21.13
19.55
17.72
15.12
11.41
6.60
1.07
-4.54
-9.57
-13.54
-16.33
-18.26
-19.94
-22.01
-24.95
-28.86
-33.47
-38.22
-42.51
-45.92
-48.35
-50.10
-51.81
-54.27
-58.26
-64.21
-71.87
-80.09
-86.76
-89.28
-85.30
-73.65
-54.98
-31.79
-7.62
13.98
30.62
41.54
47.52
50.14
51.02
51.24
51.27
51.12
50.72
50.02
49.12
48.10
47.03
45.84
44.45
42.82
41.02
39.22
37.59
36.21
34.98
33.64
31.87
29.45
26.35
22.68
18.66
14.49
10.29
6.10
1.99
-1.91
-5.44
-8.46
-11.03
-13.37
-15.93
-19.16
-23.33
-28.33
-33.73
-38.85
-43.13
-46.37
-48.85
-51.31
-54.77
-60.15
-67.95
-77.89
-88.59
-97.69
-102.21
-99.44
-87.96
-68.31
-43.16
-16.45
7.81
26.80
39.53
46.72
50.08
51.41
52.01
52.50
53.08
53.73
54.47
55.34
56.31
57.28
58.02
58.35
58.16
57.55
56.72
55.92
55.25
54.58
53.58
51.81
48.98
45.11
40.51
35.67
31.01
26.68
22.56
18.36
13.83
8.99
4.10
-0.48
-4.50
-7.97
-11.21
-14.67
-18.71
-23.41
-28.50
-33.49
-37.86
-41.32
-43.98
-46.32
-49.17
-53.42
-59.76
-68.29
-78.17
-87.42
-93.27
-92.83
-84.19
-67.30
-44.22
-18.66
5.30
24.46
37.40
44.55
47.53
48.20
47.95
47.39
46.58
45.45
44.04
42.66
41.68
41.33
41.53
41.88
41.86
41.12
39.60
37.63
35.74
34.36
33.60
33.05
31.99
29.65
25.60
19.97
13.44
6.98
1.47
-2.63
-5.47
-7.70
-10.19
-13.57
-18.07
-23.35
-28.72
-33.43
-37.01
-39.44
-41.12
-42.80
-45.24
-49.13
-54.83
-62.24
-70.55
-78.14
-82.72
-81.86
-73.89
-58.61
-37.72
-14.37
7.77
25.78
38.27
45.44
48.58
49.17
48.32
46.54
44.01
40.97
37.83
35.15
33.31
32.37
32.04
31.86
31.47
30.78
29.91
29.06
28.24
27.22
25.51
22.69
18.57
13.40
7.77
2.42
-2.20
-6.04
-9.53
-13.27
-17.70
-22.86
-28.30
-33.36
-37.44
-40.35
-42.41
-44.35
-47.12
-51.59
-58.25
-66.87
-76.21
-84.06
-87.60
-84.31
-72.90
-54.03
-30.37
-5.77
15.97
32.30
42.52
47.56
49.24
49.34
48.94
48.39
47.56
46.29
44.61
42.83
41.30
40.20
39.42
38.62
37.45
35.72
33.58
31.44
29.74
28.71
28.16
27.49
25.91
22.86
18.22
12.47
6.49
1.25
-2.66
-5.25
-7.17
-9.37
-12.74
-17.65
-23.85
-30.54
-36.69
-41.51
-44.69
-46.59
-48.08
-50.28
-54.27
-60.72
-69.61
-80.04
-90.05
-96.92
-97.75
-90.45
-74.57
-51.79
-25.56
-0.04
21.19
36.20
45.01
49.07
50.43
50.78
51.07
51.50
51.88
52.05
52.00
51.90
51.90
52.00
52.01
51.68
50.84
49.53
48.00
46.58
45.48
44.64
43.76
42.39
40.14
36.86
32.67
27.94
23.14
18.65
14.72
11.41
8.65
6.25
3.96
1.52
-1.31
-4.63
-8.41
-12.35
-16.05
-19.10
-21.32
-22.89
-24.29
-26.18
-29.14
-33.28
-38.29
-43.49
-48.13
-51.69
-54.10
-55.74
-57.34
-59.80
-63.94
-70.32
-78.81
-88.33
-96.68
-100.86
-97.93
-86.17
-66.01
-40.15
-12.76
11.89
30.87
43.27
49.99
52.88
53.79
53.91
53.75
53.47
53.14
52.96
53.12
53.64
54.30
54.73
54.57
53.66
52.09
50.21
48.42
47.01
46.04
45.27
44.25
42.47
39.65
35.75
31.08
26.16
21.54
17.57
14.36
11.71
9.26
6.64
3.63
0.21
-3.45
-7.09
-10.45
-13.39
-15.87
-18.04
-20.17
-22.59
-25.63
-29.40
-33.72
-38.14
-42.03
-44.86
-46.49
-47.27
-47.99
-49.59
-52.92
-58.39
-65.70
-73.74
-80.56
-83.75
-81.00
-70.99
-54.01
-32.13
-8.73
12.64
29.25
40.02
45.43
46.98
46.39
44.93
43.31
41.78
40.43
39.34
38.63
38.33
38.35
38.46
38.37
37.93
37.12
36.06
34.96
33.98
33.10
32.11
30.68
28.50
25.42
21.51
17.05
12.39
7.82
3.52
-0.44
-4.04
-7.27
-10.10
-12.59
-14.92
-17.41
-20.38
-24.05
-28.29
-32.75
-36.93
-40.41
-43.03
-45.01
-46.84
-49.22
-52.88
-58.37
-65.80
-74.41
-82.48
-87.43
-86.57
-78.03
-61.68
-39.43
-14.74
8.52
27.29
40.13
47.35
50.39
51.02
50.59
49.80
48.85
47.72
46.49
45.42
44.77
44.66
44.95
45.23
45.10
44.34
43.04
41.56
40.25
39.20
38.11
36.41
33.58
29.41
24.22
18.74
13.78
9.83
6.85
4.31
1.49
-2.09
-6.45
-11.13
-15.44
-18.86
-21.31
-23.15
-25.04
-27.59
-31.07
-35.33
-39.87
-44.07
-47.46
-49.93
-51.78
-53.66
-56.40
-60.80
-67.29
-75.58
-84.38
-91.39
-93.74
-88.95
-75.89
-55.51
-30.73
-5.55
16.29
32.48
42.61
47.80
49.89
50.52
50.66
50.61
50.36
49.90
49.40
49.02
48.88
48.90
48.83
48.41
47.50
46.16
44.65
43.30
42.33
41.71
41.11
39.96
37.74
34.18
29.49
24.27
19.30
15.21
12.23
10.10
8.19
5.83
2.59
-1.52
-6.11
-10.58
-14.37
-17.26
-19.42
-21.38
-23.81
-27.17
-31.58
-36.66
-41.72
-46.05
-49.22
-51.29
-52.84
-54.76
-58.08
-63.60
-71.55
-81.31
-91.15
-98.40
-100.01
-93.56
-78.30
-55.70
-29.13
-2.88
19.29
35.25
44.89
49.66
51.56
52.29
52.74
53.11
53.25
53.06
52.66
52.32
52.24
52.39
52.53
52.30
51.49
50.17
48.69
47.53
46.97
46.92
46.92
46.26
44.37
41.04
36.46
31.20
25.92
21.20
17.36
14.41
12.12
10.06
7.73
4.74
0.96
-3.41
-7.85
-11.78
-14.74
-16.75
-18.31
-20.15
-22.98
-27.01
-31.91
-36.91
-41.15
-44.10
-45.81
-46.81
-47.97
-50.16
-54.04
-59.87
-67.36
-75.44
-82.24
-85.30
-82.24
-71.73
-54.16
-31.83
-8.28
12.80
28.81
38.90
43.80
45.18
44.70
43.49
42.01
40.31
38.43
36.61
35.25
34.69
35.04
36.09
37.39
38.45
38.99
38.95
38.49
37.82
36.98
35.86
34.16
31.60
28.06
23.62
18.54
13.19
7.92
3.05
-1.18
-4.66
-7.44
-9.78
-12.13
-14.98
-18.66
-23.19
-28.18
-32.97
-36.94
-39.76
-41.55
-42.89
-44.57
-47.37
-51.82
-58.09
-65.82
-73.94
-80.68
-83.70
-80.74
-70.49
-53.26
-31.24
-7.88
13.16
29.26
39.52
44.68
46.42
46.45
45.90
45.16
44.20
42.93
41.48
40.18
39.39
39.28
39.73
40.39
40.84
40.78
40.10
38.91
37.37
35.66
33.78
31.64
29.05
25.87
22.07
17.72
12.97
8.03
3.12
-1.54
-5.71
-9.27
-12.21
-14.73
-17.19
-20.03
-23.59
-27.94
-32.83
-37.77
-42.21
-45.74
-48.33
-50.34
-52.49
-55.69
-60.78
-68.21
-77.68
-87.82
-96.27
-100.11
-96.74
-84.89
-65.32
-40.76
-15.10
7.87
25.64
37.46
44.17
47.38
48.70
49.21
49.40
49.39
49.24
49.09
49.07
49.27
49.58
49.72
49.42
48.52
47.13
45.61
44.40
43.82
43.85
44.10
43.86
42.45
39.49
35.07
29.77
24.41
19.78
16.29
13.81
11.77
9.40
6.14
1.88
-2.99
-7.71
-11.63
-14.48
-16.56
-18.64
-21.53
-25.72
-31.17
-37.25
-43.11
-47.97
-51.51
-53.97
-56.08
-58.86
-63.36
-70.29
-79.67
-90.49
-100.59
-106.95
-106.50
-97.17
-78.87
-53.81
-25.92
0.37
21.58
36.14
44.44
48.27
49.73
50.46
51.28
52.36
53.55
54.69
55.73
56.69
57.53
58.14
58.33
57.94
56.99
55.65
54.25
53.09
52.30
51.72
50.94
49.47
46.92
43.30
38.93
34.39
30.24
26.77
23.93
21.42
18.87
16.00
12.70
9.01
5.01
0.80
-3.49
-7.68
-11.48
-14.60
-16.94
-18.68
-20.35
-22.64
-26.11
-30.83
-36.34
-41.78
-46.27
-49.34
-51.15
-52.38
-54.04
-57.09
-62.19
-69.48
-78.38
-87.36
-94.07
-95.72
-89.99
-75.96
-54.76
-29.44
-4.04
17.73
33.59
43.15
47.61
48.85
48.63
48.04
47.55
47.16
46.85
46.61
46.53
46.62
46.78
46.79
46.37
45.43
44.12
42.74
41.64
40.93
40.36
39.37
37.38
34.03
29.48
24.30
19.29
15.06
11.80
9.17
6.58
3.45
-0.40
-4.74
-9.00
-12.67
-15.50
-17.70
-19.78
-22.34
-25.74
-29.93
-34.48
-38.82
-42.47
-45.28
-47.48
-49.64
-52.52
-56.87
-63.13
-71.14
-79.80
-87.02
-90.04
-86.35
-74.59
-55.38
-31.31
-6.18
16.20
33.23
44.12
49.65
51.46
51.19
49.97
48.32
46.43
44.45
42.66
41.33
40.68
40.67
41.05
41.48
41.68
41.57
41.23
40.85
40.50
40.06
39.10
37.18
33.95
29.42
24.02
18.47
13.50
9.55
6.60
4.21
1.69
-1.52
-5.58
-10.13
-14.48
-17.97
-20.33
-21.86
-23.31
-25.53
-29.03
-33.70
-38.87
-43.63
-47.32
-49.80
-51.54
-53.46
-56.59
-61.80
-69.48
-79.26
-89.79
-98.71
-103.06
-100.11
-88.39
-68.45
-42.98
-15.98
8.50
27.58
40.30
47.37
50.49
51.41
51.42
51.19
50.97
50.86
50.91
51.19
51.64
52.14
52.44
52.27
51.48
50.12
48.44
46.80
45.56
44.84
44.35
43.52
41.65
38.31
33.57
28.06
22.68
18.26
15.13
13.01
11.18
8.79
5.33
0.85
-4.04
-8.53
-11.96
-14.23
-15.80
-17.54
-20.28
-24.46
-29.93
-35.99
-41.75
-46.44
-49.76
-51.97
-53.83
-56.37
-60.64
-67.41
-76.77
-87.75
-98.21
-105.08
-105.20
-96.43
-78.63
-54.00
-26.47
-0.41
20.72
35.40
44.01
48.24
50.02
50.79
51.25
51.56
51.69
51.72
51.86
52.25
52.86
53.45
53.66
53.23
52.14
50.67
49.32
48.50
48.37
48.66
48.72
47.77
45.25
41.09
35.78
30.16
25.12
21.23
18.50
16.45
14.34
11.52
7.67
2.96
-2.07
-6.74
-10.49
-13.15
-15.02
-16.78
-19.23
-22.91
-27.88
-33.68
-39.50
-44.52
-48.31
-50.94
-53.00
-55.39
-59.02
-64.57
-72.23
-81.37
-90.34
-96.64
-97.35
-90.23
-74.61
-51.98
-25.73
-0.05
21.43
36.74
45.85
50.16
51.58
51.69
51.34
50.79
50.08
49.27
48.53
48.02
47.78
47.65
47.40
46.88
46.06
45.13
44.30
43.67
43.16
42.39
40.89
38.27
34.44
29.65
24.51
19.64
15.50
12.13
9.24
6.31
2.95
-0.91
-5.00
-8.85
-12.10
-14.72
-16.99
-19.42
-22.40
-26.01
-29.96
-33.75
-36.95
-39.42
-41.41
-43.45
-46.24
-50.45
-56.52
-64.37
-73.17
-81.16
-85.91
-84.86
-76.36
-60.41
-38.92
-15.28
6.78
24.35
36.15
42.50
44.81
44.62
43.13
40.97
38.37
35.59
32.99
31.04
30.10
30.19
31.00
32.02
32.80
33.10
32.94
32.49
31.82
30.81
29.14
26.46
22.60
17.75
12.37
7.08
2.37
-1.64
-5.18
-8.78
-12.93
-17.83
-23.28
-28.74
-33.54
-37.29
-40.03
-42.26
-44.86
-48.75
-54.64
-62.64
-71.99
-80.93
-86.95
-87.44
-80.54
-66.01
-45.50
-22.18
0.30
18.93
32.19
40.20
44.18
45.67
45.85
45.33
44.27
42.73
40.89
39.09
37.70
36.88
36.56
36.44
36.23
35.79
35.22
34.72
34.39
34.05
33.22
31.28
27.79
22.76
16.68
10.36
4.61
-0.09
-3.79
-6.98
-10.38
-14.61
-19.93
-26.13
-32.60
-38.56
-43.39
-46.91
-49.53
-52.23
-56.23
-62.67
-72.02
-83.70
-95.78
-105.24
-108.76
-103.80
-89.63
-67.80
-41.78
-15.74
6.70
23.59
34.81
41.63
45.75
48.57
50.81
52.64
54.04
55.03
55.73
56.32
56.82
57.12
57.01
56.36
55.17
53.66
52.17
50.97
50.09
49.27
48.06
45.98
42.79
38.57
33.77
28.96
24.61
20.89
17.57
14.24
10.50
6.23
1.68
-2.70
-6.48
-9.58
-12.31
-15.31
-19.20
-24.23
-30.20
-36.47
-42.38
-47.53
-51.92
-55.99
-60.44
-65.96
-73.21
-82.53
-93.69
-105.48
-115.61
-120.98
-118.64
-106.91
-86.27
-59.55
-30.98
-4.86
15.84
30.14
38.90
43.95
47.21
50.03
53.05
56.34
59.69
62.82
65.51
67.58
68.93
69.55
69.53
69.01
68.26
67.51
66.93
66.51
66.02
65.11
63.41
60.68
56.97
52.54
47.75
42.97
38.43
34.25
30.52
27.25
24.46
22.07
19.89
17.60
14.86
11.44
7.36
2.88
-1.59
-5.65
-9.11
-12.08
-14.93
-18.16
-22.19
-27.22
-33.09
-39.30
-45.16
-50.05
-53.64
-56.01
-57.69
-59.55
-62.61
-67.74
-75.37
-85.05
-95.17
-103.06
-105.51
-99.87
-85.10
-62.51
-35.47
-8.38
14.81
31.75
42.15
47.32
49.26
49.74
49.85
50.02
50.22
50.43
50.64
50.93
51.31
51.65
51.74
51.34
50.33
48.79
46.99
45.23
43.70
42.30
40.69
38.42
35.12
30.79
25.74
20.58
15.90
12.10
9.16
6.67
4.06
0.85
-3.04
-7.30
-11.31
-14.53
-16.79
-18.44
-20.19
-22.77
-26.57
-31.40
-36.57
-41.22
-44.71
-46.92
-48.34
-49.89
-52.65
-57.49
-64.75
-73.96
-83.62
-91.29
-94.08
-89.53
-76.56
-56.14
-31.19
-5.70
16.54
33.14
43.55
48.82
50.75
51.01
50.65
50.08
49.36
48.48
47.55
46.71
46.11
45.75
45.52
45.26
44.84
44.28
43.69
43.25
43.02
42.85
42.32
40.87
38.08
33.85
28.52
22.81
17.55
13.35
10.42
8.48
6.93
5.06
2.30
-1.55
-6.21
-11.07
-15.33
-18.43
-20.30
-21.46
-22.78
-25.19
-29.19
-34.64
-40.78
-46.59
-51.23
-54.34
-56.22
-57.74
-59.99
-64.02
-70.46
-79.19
-89.04
-97.76
-102.36
-99.96
-88.86
-69.34
-43.91
-16.61
8.32
27.73
40.45
47.18
49.82
50.39
50.41
50.58
51.05
51.70
52.41
53.10
53.68
53.99
53.83
53.07
51.69
49.84
47.84
45.98
44.47
43.33
42.35
41.18
39.44
36.82
33.26
28.90
24.14
19.45
15.30
11.94
9.40
7.46
5.71
3.75
1.29
-1.73
-5.15
-8.66
-11.89
-14.60
-16.71
-18.36
-19.95
-21.97
-24.92
-29.05
-34.25
-39.99
-45.47
-49.96
-53.07
-54.97
-56.41
-58.48
-62.23
-68.39
-76.93
-86.89
-96.20
-102.02
-101.43
-92.38
-74.65
-50.15
-22.57
3.76
25.30
40.27
48.82
52.54
53.50
53.37
53.05
52.84
52.74
52.75
52.93
53.29
53.72
53.96
53.74
52.94
51.68
50.28
49.06
48.21
47.66
47.16
46.39
45.02
42.87
39.85
36.05
31.69
27.10
22.71
18.87
15.69
13.07
10.66
8.07
5.03
1.44
-2.54
-6.63
-10.53
-14.02
-16.98
-19.42
-21.50
-23.52
-25.85
-28.84
-32.58
-36.86
-41.18
-44.94
-47.66
-49.30
-50.22
-51.17
-53.05
-56.67
-62.44
-70.05
-78.29
-85.01
-87.52
-83.45
-71.60
-52.63
-29.08
-4.59
17.20
33.81
44.39
49.60
50.94
50.00
47.96
45.53
43.08
40.87
39.17
38.16
37.89
38.19
38.72
39.11
39.12
38.66
37.84
36.82
35.69
34.37
32.65
30.35
27.39
23.92
20.17
16.39
12.70
9.05
5.31
1.40
-2.61
-6.53
-10.17
-13.43
-16.40
-19.37
-22.60
-26.26
-30.25
-34.26
-37.89
-40.81
-42.96
-44.59
-46.23
-48.57
-52.27
-57.77
-65.06
-73.40
-81.15
-85.97
-85.27
-77.17
-61.35
-39.43
-14.65
9.08
28.52
41.93
49.39
52.29
52.48
51.45
49.98
48.30
46.39
44.30
42.25
40.50
39.20
38.33
37.72
37.21
36.74
36.37
36.16
36.04
35.78
34.95
33.15
30.17
26.14
21.50
16.79
12.47
8.67
5.21
1.68
-2.31
-6.84
-11.66
-16.24
-20.11
-23.09
-25.45
-27.79
-30.74
-34.65
-39.38
-44.41
-49.08
-52.95
-56.01
-58.70
-61.74
-65.91
-71.86
-79.80
-89.26
-98.80
-106.04
-108.06
-102.35
-87.86
-65.70
-39.08
-12.27
10.81
27.88
38.69
44.63
47.66
49.38
50.61
51.47
51.87
51.86
51.74
51.88
52.44
53.27
53.98
54.17
53.71
52.80
51.85
51.27
51.17
51.23
50.81
49.23
46.09
41.50
36.03
30.46
25.44
21.29
17.87
14.74
11.40
7.54
3.18
-1.35
-5.58
-9.20
-12.23
-15.08
-18.38
-22.68
-28.10
-34.22
-40.26
-45.40
-49.17
-51.76
-53.94
-56.82
-61.55
-68.88
-78.83
-90.34
-101.22
-108.40
-108.75
-100.12
-82.32
-57.44
-29.33
-2.35
20.01
36.04
45.92
51.12
53.46
54.39
54.73
54.87
54.98
55.22
55.73
56.51
57.38
58.06
58.28
57.95
57.20
56.30
55.53
55.02
54.67
54.18
53.09
50.98
47.63
43.17
38.10
33.13
28.95
25.95
24.03
22.66
21.15
18.93
15.84
12.15
8.41
5.13
2.55
0.56
-1.25
-3.35
-6.04
-9.31
-12.82
-16.05
-18.56
-20.14
-20.97
-21.54
-22.44
-24.13
-26.69
-29.73
-32.36
-33.31
-31.15
-24.72
-13.55
1.84
19.78
37.88
53.65
65.21
71.77
73.72
72.23
68.70
64.38
60.06
56.16
52.81
49.97
47.39
44.69
41.40
37.15
31.83
25.66
19.13
12.89
7.52
3.33
0.19
-2.51
-5.73
-10.44
-17.27
-26.15
-36.31
-46.57
-55.95
-64.16
-71.91
-80.70
-92.27
-107.80
-127.44
-150.10
-173.84
-196.50
-216.31
-232.30
-244.27
-252.64
-258.12
-261.55
-263.65
-264.84
-264.92
-262.93
-257.24
-246.06
-228.04
-202.80
-170.96
-133.71
-92.49
-48.73
-4.20
38.64
76.70
106.77
126.67
136.08
136.73
131.77
124.54
117.61
112.24
108.67
106.61
105.82
106.23
107.84
110.41
113.37
115.90
117.23
116.95
115.18
112.59
109.99
108.03
106.92
106.25
105.30
103.42
100.34
96.45
92.65
90.02
89.32
90.62
93.20
95.67
96.54
94.60
89.40
81.25
71.06
59.87
48.44
37.09
25.64
13.61
0.42
-14.32
-30.51
-47.31
-62.89
-74.58
-79.47
-75.35
-61.63
-39.90
-13.60
12.94
35.79
52.44
62.16
65.57
63.91
58.37
49.81
39.02
27.05
15.35
5.59
-0.84
-3.27
-1.88
2.59
9.28
17.73
27.92
40.04
54.14
69.81
86.19
102.26
117.13
130.29
141.55
150.86
158.13
163.10
165.36
164.47
159.99
151.61
139.26
123.18
104.11
83.21
61.92
41.62
23.34
7.62
-5.54
-16.44
-25.49
-33.05
-39.37
-44.65
-49.05
-52.75
-55.97
-59.03
-62.39
-66.65
-72.47
-80.35
-90.44
-102.48
-115.81
-129.45
-142.22
-152.93
-160.55
-164.33
-163.98
-159.70
-151.99
-141.46
-128.52
-113.32
-95.93
-76.56
-55.85
-34.86
-14.79
3.35
19.07
32.44
43.83
53.55
61.39
66.41
67.00
61.22
47.48
25.21
-4.61
-39.37
-75.26
-108.13
-134.48
-152.27
-161.14
-162.23
-157.58
-149.46
-139.92
-130.54
-122.34
-115.77
-110.78
-106.84
-103.07
-98.51
-92.43
-84.55
-75.09
-64.69
-54.07
-43.86
-34.38
-25.71
-17.79
-10.54
-3.93
1.95
6.95
10.88
13.59
15.08
15.69
16.20
17.65
21.16
27.37
36.21
46.80
57.73
67.57
75.35
80.74
84.02
85.67
86.10
85.49
83.86
81.28
77.96
74.23
70.43
66.75
63.18
59.55
55.72
51.68
47.58
43.64
40.08
36.93
34.10
31.35
28.41
25.13
21.48
17.60
13.78
10.31
7.37
4.92
2.70
0.35
-2.41
-5.58
-8.88
-11.88
-14.24
-15.95
-17.32
-18.92
-21.31
-24.89
-29.74
-35.49
-41.34
-46.05
-48.13
-46.26
-39.76
-28.99
-15.40
-1.16
11.59
21.38
27.83
31.54
33.63
35.21
36.92
38.90
40.90
42.60
43.82
44.53
44.85
44.89
44.76
44.48
44.03
43.40
42.59
41.57
40.25
38.46
36.04
32.87
28.96
24.48
19.65
14.74
9.91
5.24
0.79
-3.35
-7.08
-10.31
-12.99
-15.25
-17.34
-19.59
-22.39
-26.09
-30.90
-36.75
-43.12
-48.98
-52.82
-53.11
-48.78
-39.73
-27.06
-12.75
0.96
12.30
20.39
25.37
28.03
29.36
30.13
30.73
31.24
31.65
31.92
32.08
32.16
32.16
32.04
31.76
31.28
30.59
29.69
28.57
27.15
25.34
22.99
20.02
16.47
12.51
8.44
4.59
1.21
-1.62
-4.04
-6.32
-8.78
-11.58
-14.75
-18.14
-21.59
-24.98
-28.44
-32.23
-36.75
-42.37
-49.21
-56.96
-64.76
-71.18
-74.52
-73.35
-66.94
-55.66
-40.96
-24.83
-9.29
4.30
15.38
24.09
30.91
36.19
40.07
42.54
43.62
43.55
42.74
41.62
40.37
38.87
36.67
33.31
28.56
22.55
15.79
8.96
2.59
-3.12
-8.41
-13.71
-19.35
-25.35
-31.31
-36.53
-40.40
-42.70
-43.71
-44.23
-45.23
-47.53
-51.48
-56.76
-62.36
-66.73
-68.12
-65.14
-57.18
-44.80
-29.57
-13.66
0.84
12.56
21.10
26.92
30.84
33.64
35.68
36.99
37.47
37.05
35.87
34.18
32.28
30.37
28.57
26.90
25.26
23.51
21.40
18.67
15.10
10.60
5.27
-0.57
-6.53
-12.24
-17.47
-22.26
-26.80
-31.49
-36.77
-42.98
-50.13
-57.63
-64.14
-67.69
-66.29
-58.58
-44.52
-25.72
-4.97
14.62
30.62
41.92
48.83
52.51
54.28
55.09
55.32
54.98
53.94
52.12
49.49
46.04
41.67
36.30
29.89
22.57
14.57
6.06
-2.89
-12.38
-22.60
-33.58
-45.07
-56.52
-67.14
-76.18
-83.17
-88.07
-91.36
-93.88
-96.60
-100.26
-104.85
-109.46
-112.15
-110.55
-102.63
-87.63
-66.48
-41.70
-16.50
6.20
24.70
38.75
49.14
57.10
63.59
69.10
73.65
77.09
79.34
80.43
80.50
79.65
77.90
75.11
71.21
66.28
60.79
55.56
51.53
49.41
49.29
50.45
51.56
51.23
48.47
43.14
35.91
27.96
20.42
14.01
8.82
4.40
-0.08
-5.53
-12.64
-21.74
-32.43
-43.40
-52.60
-57.64
-56.68
-49.18
-36.34
-20.82
-5.82
6.01
13.45
16.79
17.43
16.96
16.52
16.53
16.83
17.12
17.24
17.32
17.64
18.49
19.98
22.01
24.31
26.52
28.26
29.27
29.40
28.58
26.84
24.17
20.52
15.85
10.15
3.50
-3.87
-11.59
-19.22
-26.29
-32.40
-37.32
-41.00
-43.68
-45.81
-48.07
-51.19
-55.91
-62.63
-71.09
-80.08
-87.37
-90.17
-85.98
-73.60
-53.72
-28.95
-3.02
20.48
39.15
52.25
60.51
65.34
68.09
69.56
70.02
69.52
68.21
66.48
64.82
63.59
62.84
62.28
61.47
60.12
58.18
55.91
53.59
51.28
48.62
45.00
39.81
32.81
24.38
15.38
6.84
-0.49
-6.39
-11.25
-15.77
-20.59
-26.00
-31.74
-37.22
-41.82
-45.17
-47.34
-48.82
-50.36
-52.80
-56.84
-62.77
-70.17
-77.69
-83.08
-83.77
-77.66
-64.08
-44.24
-21.01
2.01
21.68
36.17
45.30
50.01
51.67
51.39
49.75
46.91
42.98
38.31
33.52
29.35
26.31
24.49
23.47
22.59
21.26
19.25
16.77
14.36
12.47
11.19
10.05
8.24
4.92
-0.26
-7.01
-14.35
-21.09
-26.23
-29.43
-31.12
-32.28
-34.08
-37.50
-43.00
-50.50
-59.22
-67.78
-74.20
-76.25
-72.07
-60.87
-43.42
-22.12
-0.21
19.09
33.72
43.08
47.90
49.50
49.09
47.37
44.61
40.95
36.76
32.69
29.44
27.45
26.61
26.31
25.71
24.16
21.48
18.09
14.71
11.97
9.97
8.22
5.78
1.78
-4.16
-11.65
-19.70
-27.09
-32.85
-36.66
-38.92
-40.61
-42.97
-47.13
-53.77
-62.76
-72.92
-82.03
-87.24
-85.80
-76.15
-58.59
-35.41
-10.27
13.01
31.63
44.52
52.18
56.06
57.63
57.82
56.91
54.87
51.74
47.93
44.04
40.74
38.34
36.73
35.44
33.90
31.77
29.06
26.15
23.52
21.51
20.03
18.54
16.22
12.29
6.39
-1.26
-9.82
-18.16
-25.24
-30.53
-34.17
-36.94
-39.98
-44.44
-51.12
-60.17
-70.84
-81.41
-89.35
-91.91
-86.89
-73.59
-53.19
-28.64
-3.72
18.12
34.80
45.89
52.32
55.58
56.94
57.12
56.26
54.35
51.51
48.11
44.73
41.81
39.59
37.97
36.63
35.21
33.43
31.18
28.48
25.51
22.43
19.35
16.28
12.98
9.13
4.37
-1.43
-8.08
-15.01
-21.50
-26.93
-31.05
-34.14
-36.84
-39.93
-44.16
-50.00
-57.67
-66.91
-76.73
-85.25
-89.95
-88.26
-78.53
-60.87
-37.39
-11.62
12.60
32.34
46.28
54.75
59.04
60.61
60.49
59.16
56.79
53.55
49.82
46.17
43.13
40.97
39.66
38.87
38.19
37.31
36.12
34.67
33.03
31.19
29.04
26.42
23.21
19.36
14.86
9.74
3.98
-2.30
-8.91
-15.49
-21.59
-26.85
-31.13
-34.59
-37.72
-41.19
-45.74
-51.96
-59.98
-69.16
-77.93
-83.92
-84.51
-77.78
-63.26
-42.39
-18.19
5.67
25.97
40.83
49.95
54.30
55.34
54.38
52.24
49.24
45.56
41.41
37.26
33.63
30.97
29.40
28.68
28.27
27.62
26.39
24.54
22.34
20.11
18.04
16.01
13.68
10.55
6.27
0.77
-5.70
-12.57
-19.12
-24.70
-28.94
-31.88
-34.00
-36.06
-38.89
-43.20
-49.32
-57.01
-65.38
-72.82
-77.21
-76.47
-69.15
-55.13
-35.83
-13.97
7.26
25.08
37.90
45.48
48.57
48.35
45.85
41.84
36.84
31.43
26.28
22.05
19.16
17.54
16.69
15.97
14.91
13.46
11.96
10.81
10.18
9.74
8.75
6.38
2.16
-3.83
-10.87
-17.93
-24.09
-28.89
-32.50
-35.63
-39.28
-44.39
-51.53
-60.60
-70.58
-79.54
-84.91
-84.17
-75.75
-59.74
-38.10
-14.11
8.63
27.36
40.80
49.15
53.46
54.95
54.44
52.30
48.76
44.15
39.10
34.34
30.46
27.65
25.64
23.94
22.11
20.03
17.94
16.23
15.05
14.14
12.74
9.94
5.07
-1.85
-10.09
-18.45
-25.71
-31.15
-34.82
-37.55
-40.64
-45.49
-53.04
-63.31
-75.14
-86.10
-93.06
-93.03
-84.27
-67.03
-43.70
-18.02
6.05
25.64
39.56
48.27
53.13
55.58
56.53
56.30
54.89
52.39
49.20
45.97
43.28
41.43
40.25
39.24
37.81
35.67
32.94
30.09
27.63
25.82
24.42
22.70
19.75
14.83
7.70
-1.15
-10.71
-19.78
