1523172784.00
64.000000
-0.00
-0.00
-0.00
-0.00
-0.00
-0.00
-0.00
-0.00
-0.00
-0.00
0.00
0.01
0.01
-0.00
-0.03
-0.05
-0.05
0.00
0.13
0.36
0.66
1.01
1.37
1.72
2.06
2.40
2.79
3.24
3.80
4.42
5.06
5.66
6.20
6.68
7.15
7.68
8.31
9.14
10.09
11.04
11.88
12.56
13.14
13.76
14.65
15.96
17.91
20.32
22.90
25.38
27.58
29.57
31.68
34.32
37.81
42.54
48.15
54.10
59.83
64.97
69.58
74.14
79.34
85.71
93.76
103.00
112.62
121.73
129.77
136.75
143.30
150.75
157.77
166.64
177.95
191.79
206.97
220.57
228.25
225.36
208.53
176.87
132.76
80.05
23.07
-34.95
-92.44
-149.16
-205.23
-260.37
-313.73
-363.86
-409.81
-450.86
-486.43
-515.64
-537.10
-549.05
-549.74
-538.10
-513.88
-478.28
-433.43
-381.93
-326.43
-269.18
-211.90
-155.85
-102.07
-51.40
-4.85
36.74
72.69
102.73
127.00
146.02
160.49
171.11
178.53
183.13
185.19
184.96
182.69
178.75
173.54
167.46
160.88
154.03
147.06
140.04
133.00
126.00
119.10
112.37
105.88
99.68
93.81
88.28
83.10
78.28
73.83
69.75
66.07
62.78
59.90
57.43
55.33
53.61
52.21
51.07
50.09
49.15
48.08
46.71
44.86
42.39
39.17
35.16
30.36
24.82
18.68
12.16
5.50
-1.04
-7.19
-12.71
-17.41
-21.16
-23.90
-25.62
-26.37
-26.27
-25.45
-24.06
-22.24
-20.13
-17.85
-15.46
-13.01
-10.55
-8.10
-5.67
-3.25
-0.82
1.66
4.20
6.83
9.60
12.48
15.44
18.48
21.62
24.85
28.19
31.67
35.34
39.23
43.28
47.42
51.63
55.91
60.27
64.72
69.33
74.15
79.29
84.62
90.07
95.60
101.20
106.84
112.54
118.28
124.09
130.00
135.74
141.07
145.76
149.57
152.23
153.37
152.49
148.91
143.94
138.05
131.55
124.66
117.54
110.33
103.15
96.09
89.30
82.91
76.79
70.84
65.04
59.39
53.91
48.65
43.65
38.99
34.78
30.89
27.24
23.80
20.53
17.41
14.45
11.66
9.07
6.77
4.66
2.70
0.87
-0.89
-2.64
-4.43
-6.28
-8.17
-10.05
-11.93
-13.82
-15.74
-17.76
-19.95
-22.39
-25.10
-28.05
-31.13
-34.28
-37.43
-40.57
-43.77
-47.13
-50.75
-54.63
-58.62
-62.47
-65.85
-68.49
-70.28
-71.34
-71.88
-72.14
-72.16
-71.74
-70.45
-67.82
-63.61
-58.02
-51.72
-45.71
-40.92
-37.91
-36.57
-36.26
-36.07
-35.38
-34.19
-33.30
-33.98
-37.50
-44.51
-54.80
-67.45
-81.24
-95.36
-109.74
-125.24
-143.31
-165.78
-194.50
-230.80
-274.64
-323.68
-372.76
-414.46
-440.93
-446.44
-429.53
-393.63
-345.74
-293.85
-244.33
-200.59
-163.27
-131.48
-104.23
-81.10
-62.03
-46.77
-34.45
-23.75
-13.37
-2.55
8.66
19.47
28.84
35.96
40.62
43.28
44.85
46.34
48.36
50.92
53.37
54.73
54.18
51.38
46.78
41.36
36.37
32.69
30.55
29.37
28.06
25.52
21.06
14.75
7.33
-0.14
-6.72
-11.95
-15.96
-19.39
-23.06
-27.83
-34.29
-42.71
-52.74
-63.27
-72.40
-77.63
-76.59
-67.80
-51.38
-29.20
-4.32
19.87
40.71
56.78
67.92
74.82
78.45
79.71
79.33
77.91
76.05
74.24
72.79
71.67
70.60
69.14
66.90
63.75
59.89
55.76
51.91
48.70
46.14
43.79
41.01
37.18
32.08
25.97
19.51
13.48
8.36
4.14
0.34
-3.79
-8.84
-14.97
-21.87
-28.79
-34.92
-39.71
-43.14
-45.82
-48.81
-53.32
-60.24
-69.71
-80.76
-91.25
-98.34
-99.19
-91.99
-76.63
-54.95
-30.11
-5.68
15.50
31.96
43.58
51.19
55.88
58.51
59.63
59.55
58.57
57.01
55.16
53.19
51.08
48.73
46.07
43.18
40.20
37.32
34.63
32.01
29.19
25.87
21.88
17.39
12.96
9.44
7.71
8.36
11.42
16.35
22.20
27.83
32.24
34.77
35.17
33.47
29.96
25.03
19.20
13.03
7.06
1.69
-2.93
-6.91
-10.56
-14.29
-18.55
-23.67
-29.84
-36.85
-43.93
-49.71
-52.45
-50.54
-43.20
-30.91
-15.49
0.49
14.55
25.08
31.67
34.93
35.88
35.42
34.03
31.78
28.63
24.65
20.16
15.59
11.36
7.72
4.67
2.08
-0.37
-3.02
-6.16
-9.96
-14.41
-19.31
-24.41
-29.46
-34.37
-39.13
-43.88
-48.89
-54.54
-61.40
-70.03
-80.55
-92.11
-102.65
-109.05
-108.13
-97.79
-78.13
-51.55
-22.05
6.15
29.92
47.95
60.49
68.70
73.75
76.41
77.07
76.06
73.93
71.46
69.34
67.90
66.90
65.60
63.13
58.89
52.81
45.45
37.77
30.71
24.90
20.33
16.40
12.15
6.69
-0.43
-9.06
-18.44
-27.61
-35.77
-42.59
-48.31
-53.58
-59.25
-66.15
-74.91
-85.71
-98.07
-110.51
-120.57
-125.23
-121.75
-108.70
-86.67
-58.34
-27.63
1.49
26.23
45.53
59.82
70.36
78.26
84.11
87.89
89.51
89.10
87.26
84.92
82.85
81.27
79.75
77.44
73.58
67.95
61.05
53.91
47.64
42.83
39.42
36.64
33.37
28.69
22.13
13.84
4.48
-5.03
-13.86
-21.51
-27.87
-33.33
-38.45
-43.97
-50.54
-58.74
-68.75
-80.14
-91.52
-100.55
-104.39
-100.59
-88.07
-67.76
-42.43
-15.80
8.65
28.73
43.83
54.44
61.45
65.50
66.87
65.78
62.73
58.66
54.71
51.75
49.92
48.66
46.95
43.87
39.12
33.10
26.73
21.01
16.51
13.14
10.18
6.59
1.43
-5.73
-14.67
-24.60
-34.49
-43.45
-51.01
-57.28
-62.88
-68.80
-76.14
-85.83
-98.14
-112.24
-125.98
-136.13
-139.19
-132.61
-115.85
-90.72
-60.93
-30.79
-3.90
17.88
34.40
46.72
56.14
63.55
69.25
73.10
74.96
75.00
73.72
71.82
69.97
68.50
67.43
66.46
65.18
63.28
60.63
57.23
53.13
48.38
43.09
37.68
32.97
30.11
30.18
33.72
40.37
48.84
57.34
64.20
68.42
69.80
68.85
66.31
62.87
58.95
54.86
50.85
47.17
44.05
41.56
39.52
37.61
35.51
32.98
29.98
26.61
23.02
19.34
15.63
11.95
8.33
4.85
1.60
-1.34
-3.97
-6.42
-8.94
-11.85
-15.36
-19.48
-23.97
-28.44
-32.45
-35.85
-38.79
-41.78
-45.36
-49.89
-55.32
-61.22
-66.99
-72.10
-76.38
-80.06
-83.71
-88.12
-94.10
-102.26
-112.67
-124.44
-135.51
-142.90
-143.42
-134.79
-116.59
-90.64
-60.53
-30.38
-3.64
17.83
33.81
45.18
53.09
58.38
61.52
62.80
62.69
61.87
61.07
60.76
60.86
60.85
60.07
58.05
54.85
50.99
47.27
44.25
42.01
40.05
37.46
33.34
27.20
19.14
9.93
0.66
-7.69
-14.60
-20.24
-25.38
-31.15
-38.69
-48.69
-61.00
-74.26
-85.97
-92.93
-92.26
-82.45
-64.12
-39.89
-13.52
11.34
32.27
48.41
60.13
68.29
73.65
76.58
77.34
76.29
74.06
71.33
68.55
65.74
62.51
58.36
53.04
46.73
40.12
34.12
29.38
26.05
23.55
20.81
16.73
10.63
2.63
-6.48
-15.57
-23.67
-30.35
-35.89
-41.09
-47.06
-54.83
-64.99
-77.25
-90.17
-101.16
-107.04
-104.97
-93.59
-73.65
-47.97
-20.51
4.85
25.43
40.20
49.54
54.59
56.58
56.42
54.70
51.80
48.11
44.00
39.81
35.75
31.91
28.25
24.76
21.53
18.64
16.10
13.74
11.10
7.61
2.75
-3.63
-11.29
-19.61
-27.83
-35.34
-41.91
-47.82
-53.82
-60.97
-70.21
-81.89
-95.25
-108.16
-117.50
-119.98
-113.29
-97.10
-73.25
-45.25
-17.17
7.58
27.14
41.26
50.89
57.34
61.72
64.56
65.96
65.82
64.16
61.20
57.36
53.17
49.06
45.35
42.21
39.68
37.65
35.79
33.56
30.34
25.55
18.96
10.65
1.11
-9.00
-19.11
-28.85
-38.30
-47.92
-58.45
-70.65
-84.66
-99.50
-112.85
-121.50
-122.35
-113.65
-95.78
-71.27
-43.92
-17.37
5.91
25.09
40.59
53.24
63.69
72.16
78.50
82.66
84.74
85.06
83.93
81.62
78.28
74.01
68.96
63.46
57.95
53.00
49.04
46.21
44.14
41.99
38.62
33.08
24.97
14.64
3.14
-8.22
-18.38
-26.91
-34.20
-41.25
-49.34
-59.57
-72.39
-87.24
-102.41
-115.18
-122.41
-121.53
-111.36
-92.67
-68.03
-40.95
-14.79
8.17
27.13
42.51
55.32
66.48
76.43
85.09
92.08
97.06
99.86
100.62
99.66
97.40
94.24
90.62
86.88
83.44
80.62
78.57
77.12
75.78
73.87
70.78
66.37
61.04
55.63
51.07
47.96
46.30
45.38
44.15
41.60
37.22
31.17
24.07
16.71
9.65
3.04
-3.25
-9.45
-15.65
-21.63
-27.02
-31.55
-35.24
-38.48
-41.88
-46.13
-51.74
-58.97
-67.66
-77.03
-85.60
-91.23
-91.67
-85.22
-71.45
-51.59
-28.27
-4.69
16.33
33.10
45.24
53.21
57.78
59.57
58.90
56.07
51.61
46.33
41.25
37.22
34.73
33.71
33.71
34.05
34.14
33.57
32.14
29.83
26.69
22.77
18.18
13.06
7.62
1.99
-3.77
-9.72
-16.02
-22.74
-29.82
-36.95
-43.71
-49.75
-54.95
-59.51
-64.00
-69.20
-75.95
-84.72
-95.24
-106.16
-115.05
-118.92
-115.21
-102.77
-82.46
-57.00
-30.08
-5.09
15.79
31.96
43.96
52.83
59.37
63.91
66.47
67.04
65.89
63.57
60.85
58.38
56.51
55.24
54.30
53.35
52.18
50.85
49.55
48.50
47.71
46.79
45.13
42.01
37.01
30.21
22.18
13.89
6.26
-0.13
-5.30
-9.85
-14.61
-20.32
-27.18
-34.79
-42.27
-48.74
-53.69
-57.22
-60.02
-63.11
-67.51
-74.03
-82.96
-93.94
-105.71
-116.16
-122.59
-122.45
-114.15
-97.76
-75.12
-49.33
-23.77
-1.13
17.16
31.00
41.20
48.77
54.54
58.90
61.92
63.54
63.78
62.84
61.11
59.01
56.83
54.73
52.69
50.66
48.61
46.57
44.52
42.28
39.53
35.85
30.98
24.93
18.07
11.00
4.30
-1.73
-7.20
-12.56
-18.31
-24.77
-31.90
-39.30
-46.42
-52.79
-58.26
-63.03
-67.73
-73.26
-80.52
-90.14
-101.91
-114.46
-125.27
-131.20
-129.51
-118.87
-100.05
-75.66
-49.32
-24.43
-3.17
13.85
27.25
38.18
47.64
56.09
63.48
69.60
74.26
77.45
79.31
80.00
79.64
78.24
75.91
72.88
69.62
66.68
64.54
63.32
62.71
61.97
60.24
56.79
51.35
44.14
35.88
27.47
19.80
13.37
8.13
3.55
-1.24
-7.05
-14.37
-23.05
-32.47
-41.71
-49.94
-56.81
-62.46
-67.60
-73.21
-80.33
-89.68
-101.37
-114.43
-126.79
-135.46
-137.35
-130.36
-114.25
-90.87
-63.63
-36.35
-12.04
7.87
23.44
35.66
45.71
54.33
61.80
68.03
72.94
76.52
78.92
80.27
80.73
80.36
79.29
77.74
75.99
74.34
72.98
71.91
70.95
69.84
68.25
65.99
62.89
58.90
53.99
48.19
41.64
34.59
27.35
20.23
13.41
6.98
0.83
-5.21
-11.34
-17.70
-24.34
-31.12
-37.89
-44.45
-50.63
-56.40
-61.85
-67.19
-72.87
-79.50
-87.74
-97.85
-109.19
-119.91
-127.13
-127.70
-119.40
-101.95
-77.32
-49.17
-21.49
2.65
21.88
36.48
47.64
56.64
64.25
70.67
75.72
79.21
81.14
81.64
81.00
79.43
77.16
74.39
71.36
68.33
65.54
63.17
61.26
59.73
58.38
56.93
55.09
52.65
49.49
45.65
41.27
36.49
31.50
26.34
21.07
15.76
10.49
5.28
0.08
-5.30
-11.09
-17.36
-23.98
-30.54
-36.52
-41.63
-45.91
-49.76
-53.86
-58.92
-65.49
-73.83
-83.70
-94.21
-103.65
-109.75
-110.10
-102.97
-88.07
-66.84
-42.12
-17.29
4.76
22.36
35.19
43.97
49.70
53.23
55.07
55.49
54.71
53.07
50.95
48.61
46.18
43.67
41.10
38.61
36.50
35.09
34.52
34.57
34.69
34.08
32.07
28.27
22.85
16.37
9.54
2.91
-3.32
-9.35
-15.50
-22.04
-28.97
-35.95
-42.58
-48.48
-53.53
-57.98
-62.38
-67.47
-74.08
-82.80
-93.49
-104.99
-115.00
-120.54
-118.89
-108.61
-90.18
-66.02
-39.63
-14.45
7.09
24.05
36.74
46.11
53.08
58.26
61.82
63.81
64.29
63.49
61.82
59.75
57.67
55.78
54.10
52.47
50.75
48.82
46.62
44.15
41.38
38.22
34.59
30.40
25.57
20.00
13.59
6.25
-1.95
-10.78
-19.78
-28.44
-36.36
-43.41
-49.83
-56.20
-63.31
-71.94
-82.60
-95.11
-108.34
-120.11
-127.56
-127.87
-119.33
-101.97
-77.80
-50.25
-23.04
0.79
19.73
33.71
43.78
51.32
57.49
62.91
67.67
71.58
74.34
75.76
75.79
74.56
72.26
69.22
65.79
62.33
59.13
56.32
53.81
51.28
48.35
44.63
39.92
34.18
27.50
19.99
11.78
3.04
-5.95
-14.81
-23.19
-30.84
-37.75
-44.20
-50.64
-57.66
-65.91
-75.98
-88.11
-101.87
-115.75
-127.17
-132.99
-130.50
-118.43
-97.62
-70.85
-41.99
-14.82
8.06
25.58
38.02
46.44
52.08
55.95
58.66
60.55
61.69
62.01
61.34
59.49
56.36
52.04
46.87
41.45
36.47
32.46
29.57
27.45
25.31
22.05
16.70
8.68
-1.69
-13.01
-22.90
-28.53
-27.50
-18.78
-3.25
16.44
36.80
54.55
67.66
75.58
78.95
78.83
76.13
71.33
64.63
56.26
46.80
37.13
28.28
21.07
15.87
12.52
10.37
8.58
6.29
2.91
-1.91
-8.18
-15.49
-22.98
-29.18
-32.27
-30.55
-23.05
-10.20
6.20
23.32
38.30
49.04
54.78
56.02
53.94
49.84
44.69
39.02
33.05
26.97
21.01
15.52
10.85
7.23
4.70
2.96
1.47
-0.45
-3.36
-7.52
-12.79
-18.66
-24.51
-29.83
-34.45
-38.57
-42.68
-47.43
-53.50
-61.40
-71.24
-82.30
-92.84
-100.17
-101.31
-94.02
-77.76
-54.15
-26.62
0.73
24.41
42.43
54.44
61.22
63.84
63.15
59.61
53.66
46.05
38.00
31.01
26.33
24.60
25.46
27.77
30.05
31.07
30.25
27.81
24.56
21.32
18.55
16.04
13.05
8.70
2.38
-5.82
-15.22
-24.66
-33.05
-39.70
-44.59
-48.31
-51.88
-56.46
-63.07
-72.31
-83.97
-96.82
-108.49
-115.86
-115.89
-106.71
-88.51
-63.58
-35.68
-8.80
14.12
31.81
44.61
53.66
60.14
64.70
67.50
68.49
67.83
66.05
63.81
61.60
59.50
57.20
54.18
50.11
45.13
39.81
34.95
31.18
28.55
26.41
23.68
19.17
12.22
2.93
-7.74
-18.37
-27.57
-34.59
-39.54
-43.33
-47.35
-53.01
-61.30
-72.49
-85.77
-99.25
-110.03
-114.94
-111.47
-98.71
-77.95
-52.34
-25.90
-2.19
16.74
30.65
40.59
48.09
54.29
59.68
64.20
67.55
69.51
70.07
69.40
67.77
65.46
62.71
59.69
56.55
53.27
49.84
46.19
42.33
38.31
34.20
29.95
25.37
20.12
13.79
6.19
-2.62
-12.20
-21.90
-31.07
-39.25
-46.38
-52.75
-58.91
-65.54
-73.37
-82.98
-94.50
-107.23
-119.38
-128.23
-130.77
-124.82
-109.87
-87.47
-60.86
-33.76
-9.29
10.90
26.70
38.96
48.83
57.17
64.34
70.32
74.99
78.22
79.96
80.23
79.14
76.83
73.65
70.04
66.50
63.46
61.19
59.73
58.90
58.33
57.54
56.01
53.32
49.26
43.85
37.35
30.21
22.95
16.05
9.84
4.41
-0.49
-5.33
-10.66
-16.98
-24.43
-32.73
-41.28
-49.36
-56.47
-62.47
-67.65
-72.58
-78.03
-84.78
-93.52
-104.57
-117.47
-130.63
-141.32
-146.21
-142.41
-128.61
-105.80
-77.11
-46.83
-18.94
4.03
21.48
34.37
44.29
52.58
59.92
66.36
71.71
75.87
78.96
81.19
82.68
83.40
83.23
82.14
80.39
78.42
76.80
75.86
75.58
75.58
75.24
73.92
71.18
66.93
61.38
55.05
48.66
42.84
38.05
34.24
30.97
27.48
23.06
17.40
10.75
3.85
-2.43
-7.48
-11.22
-14.16
-17.21
-21.29
-27.01
-34.28
-42.45
-50.49
-57.44
-62.86
-66.94
-70.44
-74.45
-79.97
-87.72
-97.84
-109.67
-121.50
-130.67
-134.08
-129.07
-114.58
-91.76
-63.75
-34.72
-8.46
12.82
28.73
40.24
48.84
55.65
61.15
65.32
68.02
69.28
69.40
68.76
67.71
66.37
64.78
62.92
60.94
59.04
57.46
56.26
55.31
54.24
52.59
50.02
46.50
42.28
37.75
33.30
29.09
25.04
20.89
16.36
11.29
5.80
0.16
-5.25
-10.15
-14.54
-18.69
-23.05
-28.01
-33.67
-39.81
-46.00
-51.77
-56.95
-61.73
-66.70
-72.70
-80.52
-90.57
-102.48
-114.80
-125.02
-130.06
-127.14
-114.87
-93.93
-67.05
-38.23
-11.43
10.55
26.67
37.38
43.94
47.62
49.29
49.38
48.15
45.92
43.14
40.22
37.43
34.79
32.17
29.49
26.73
23.94
21.09
18.00
14.28
9.46
3.20
-4.60
-13.70
-23.65
-33.99
-44.45
-55.05
-66.04
-77.74
-90.36
-103.85
-117.83
-131.74
-145.09
-157.61
-169.47
-181.20
-193.50
-206.99
-221.83
-237.20
-250.93
-259.60
-259.14
-245.94
-218.14
-176.46
-124.22
-66.49
-8.71
44.76
91.22
129.77
160.63
184.51
202.17
214.30
221.55
224.55
223.93
220.22
213.87
205.32
195.08
183.86
172.45
161.64
151.97
143.52
135.96
128.60
120.77
111.92
101.91
90.94
79.47
67.91
56.41
44.87
32.99
20.62
7.88
-4.76
-16.73
-27.60
-37.29
-46.20
-55.07
-64.83
-76.39
-90.26
-106.06
-122.23
-135.95
-143.68
-142.27
-130.08
-107.91
-78.86
-47.37
-17.73
7.13
26.23
40.29
50.84
59.34
66.68
73.13
78.59
82.86
85.86
87.58
88.02
87.17
85.05
81.87
78.10
74.44
71.66
70.20
69.93
70.09
69.52
67.10
62.25
55.13
46.56
37.64
29.31
21.93
15.22
8.49
0.96
-7.77
-17.56
-27.79
-37.62
-46.37
-53.79
-60.20
-66.32
-73.21
-81.87
-92.92
-106.19
-120.34
-132.74
-139.93
-138.59
-126.79
-104.88
-75.60
-43.32
-12.53
13.50
33.44
47.76
57.97
65.65
71.91
77.20
81.55
84.90
87.25
88.72
89.40
89.30
88.34
86.36
83.37
79.61
75.60
72.05
69.53
68.20
67.62
66.88
64.83
60.62
54.07
45.68
36.52
27.74
20.20
14.12
9.13
4.41
-0.91
-7.40
-15.18
-23.78
-32.42
-40.27
-46.79
-52.01
-56.55
-61.49
-68.02
-77.16
-89.19
-103.33
-117.55
-128.75
-133.51
-129.08
-114.45
-90.85
-61.46
-30.50
-1.85
21.91
39.98
53.01
62.40
69.56
75.40
80.30
84.18
86.85
88.18
88.22
87.16
85.22
82.65
79.60
76.21
72.64
69.09
65.76
62.83
60.26
57.81
55.13
51.81
47.59
42.40
36.40
29.87
23.20
16.73
10.65
5.02
-0.31
-5.64
-11.33
-17.66
-24.64
-31.99
-39.16
-45.62
-51.00
-55.29
-58.91
-62.51
-66.91
-72.84
-80.76
-90.55
-101.30
-111.08
-117.24
-117.04
-108.62
-91.81
-68.41
-41.77
-15.66
6.83
24.11
36.16
44.05
49.15
52.52
54.69
55.78
55.80
54.89
53.39
51.66
49.97
48.40
46.85
45.20
43.54
42.03
40.91
40.22
39.69
38.72
36.64
33.00
27.78
21.43
14.63
8.02
1.88
-3.92
-9.79
-16.12
-23.08
-30.48
-37.86
-44.67
-50.51
-55.33
-59.49
-63.77
-69.18
-76.64
-86.37
-97.54
-107.99
-114.64
-114.40
-105.33
-87.48
-63.07
-35.82
-9.70
12.29
28.83
40.23
47.75
52.80
56.35
58.75
59.95
59.85
58.58
56.44
53.88
51.24
48.70
46.20
43.65
40.94
38.07
35.09
32.05
28.99
25.87
22.61
19.00
14.77
9.57
3.13
-4.55
-13.13
-22.02
-30.49
-38.05
-44.55
-50.19
-55.43
-60.83
-66.97
-74.42
-83.55
-94.17
-105.14
-114.21
-118.43
-115.12
-102.95
-82.68
-57.06
-29.95
-5.00
15.39
30.54
41.17
48.72
54.52
59.40
63.60
66.99
69.33
70.44
70.29
68.98
66.65
63.50
59.83
55.98
52.33
49.15
46.49
44.11
41.53
38.25
33.95
28.61
22.46
15.73
8.57
0.95
-7.27
-16.02
-25.00
-33.73
-41.67
-48.54
-54.50
-60.10
-66.18
-73.69
-83.35
-95.31
-108.78
-121.83
-131.54
-134.77
-129.12
-113.95
-90.78
-62.91
-34.40
-8.69
12.19
27.96
39.54
48.30
55.45
61.61
66.98
71.46
74.91
77.20
78.23
77.92
76.21
73.26
69.36
65.12
61.20
58.22
56.49
55.81
55.42
54.31
51.48
46.43
39.33
30.95
22.33
14.35
7.34
1.10
-5.02
-11.62
-19.08
-27.29
-35.78
-43.94
-51.25
-57.57
-63.18
-68.76
-75.25
-83.63
-94.55
-107.88
-122.29
-135.14
-142.90
-142.20
-131.01
-109.69
-81.04
-49.47
-19.56
5.51
24.60
38.51
48.96
57.64
65.39
72.21
77.63
81.27
83.08
83.41
82.80
81.68
80.27
78.51
76.28
73.64
70.83
68.32
66.53
65.60
65.23
64.66
62.99
59.45
53.82
46.48
38.31
30.34
23.36
17.67
12.95
8.46
3.34
-3.02
-10.82
-19.72
-29.05
-38.01
-45.93
-52.49
-57.87
-62.67
-67.86
-74.55
-83.57
-95.14
-108.29
-120.80
-129.40
-130.71
-122.36
-104.05
-77.86
-47.63
-17.69
8.45
29.00
43.97
54.49
61.94
67.32
71.09
73.38
74.33
74.31
73.76
73.09
72.42
71.59
70.29
68.23
65.36
61.92
58.38
55.29
52.97
51.36
49.95
47.93
44.48
39.15
32.08
23.99
15.99
9.10
3.83
-0.07
-3.47
-7.52
-13.07
-20.31
-28.66
-37.07
-44.47
-50.24
-54.46
-57.86
-61.57
-66.81
-74.50
-84.95
-97.46
-110.16
-120.16
-124.19
-119.57
-105.26
-82.43
-54.26
-24.92
1.73
23.18
38.70
49.03
55.58
59.67
62.05
63.02
62.63
61.02
58.50
55.55
52.59
49.94
47.69
45.89
44.50
43.47
42.62
41.66
40.17
37.77
34.21
29.56
24.04
17.94
11.41
4.43
-3.07
-11.05
-19.27
-27.31
-34.74
-41.30
-47.04
-52.30
-57.62
-63.57
-70.81
-79.95
-91.21
-104.16
-117.18
-127.53
-131.89
-127.41
-112.92
-89.60
-60.71
-30.62
-3.31
18.71
34.79
45.80
53.26
58.59
62.67
65.85
68.17
69.56
70.03
69.62
68.41
66.46
63.85
60.65
57.05
53.23
49.39
45.66
42.07
38.60
35.13
31.45
27.26
22.18
15.89
8.21
-0.65
-10.15
-19.56
-28.22
-35.76
-42.33
-48.42
-54.79
-62.20
-71.29
-82.45
-95.59
-109.87
-123.45
-133.51
-136.87
-130.95
-114.85
-89.97
-59.74
-28.61
-0.65
21.68
37.88
49.03
56.92
63.15
68.66
73.69
78.02
81.29
83.25
83.71
82.70
80.34
76.93
72.94
68.86
65.11
61.91
59.16
56.51
53.48
49.61
44.63
38.57
31.76
24.66
17.62
10.73
3.75
-3.72
-11.97
-20.96
-30.22
-39.12
-47.10
-54.04
-60.28
-66.67
-74.28
-84.08
-96.45
-110.69
-124.77
-135.54
-139.41
-133.67
-117.46
-92.38
-62.02
-30.77
-2.44
20.70
38.24
51.03
60.44
67.66
73.35
77.81
81.11
83.35
84.73
85.40
85.46
84.82
83.37
81.04
77.99
74.62
71.50
69.08
67.50
66.40
65.00
62.36
57.72
50.85
42.20
32.73
23.62
15.80
9.57
4.49
-0.44
-6.27
-13.68
-22.57
-32.13
-41.16
-48.66
-54.27
-58.40
-62.11
-66.65
-73.17
-82.38
-94.34
-108.15
-121.77
-132.11
-135.74
-129.84
-113.40
-87.86
-56.81
-24.93
3.61
26.30
42.73
54.06
62.02
68.02
72.62
75.82
77.41
77.42
76.27
74.65
73.06
71.69
70.33
68.60
66.27
63.50
60.78
58.63
57.37
56.84
56.40
55.16
52.28
47.34
40.44
32.31
23.98
16.44
10.27
5.42
1.23
-3.30
-9.08
-16.50
-25.28
-34.54
-43.21
-50.44
-55.95
-60.10
-63.74
-67.94
-73.72
-81.83
-92.44
-104.85
-117.24
-126.76
-130.05
-124.36
-108.62
-84.12
-54.26
-23.52
4.04
25.92
41.53
51.74
57.98
61.48
62.94
62.65
60.85
58.00
54.75
51.81
49.63
48.30
47.61
47.17
46.64
45.88
44.95
43.90
42.66
40.93
38.22
34.11
28.56
21.92
14.91
8.23
2.23
-3.30
-9.00
-15.56
-23.27
-31.90
-40.70
-48.86
-55.81
-61.63
-66.98
-72.95
-80.71
-91.06
-104.00
-118.24
-131.19
-139.34
-139.24
-128.73
-107.97
-79.57
-47.89
-17.51
8.14
27.60
41.29
50.70
57.48
62.81
67.30
71.15
74.44
77.14
79.17
80.31
80.24
78.79
76.06
72.49
68.75
65.56
63.34
62.11
61.37
60.27
57.87
53.45
46.81
38.41
29.21
20.29
12.43
5.76
-0.25
-6.47
-13.71
-22.21
-31.57
-40.94
-49.40
-56.40
-62.03
-67.00
-72.38
-79.41
-89.01
-101.30
-115.25
-128.45
-137.42
-138.57
-129.44
-109.78
-81.88
-49.91
-18.58
8.36
29.03
43.55
53.28
59.97
65.01
69.13
72.59
75.32
77.16
77.95
77.55
75.95
73.24
69.71
65.81
62.05
58.88
56.54
55.06
54.08
53.02
51.16
47.91
43.07
37.06
30.85
25.71
22.70
22.23
23.83
26.26
28.06
28.14
26.16
22.55
18.10
13.50
8.86
3.83
-2.10
-9.06
-16.62
-23.85
-29.78
-33.93
-36.53
-38.46
-40.96
-45.18
-51.82
-60.81
-71.15
-80.78
-86.98
-86.94
-78.77
-62.25
-39.23
-13.12
12.13
33.28
48.59
57.89
62.08
62.32
59.57
54.51
47.82
40.43
33.48
27.95
24.27
22.06
20.34
17.99
14.31
9.39
3.97
-0.93
-4.59
-7.01
-8.96
-11.61
-16.06
-22.75
-31.35
-40.82
-49.90
-57.58
-63.46
-67.93
-71.94
-76.81
-83.84
-93.86
-106.65
-120.56
-132.49
-138.51
-135.06
-120.36
-95.26
-63.20
-29.03
2.54
28.27
47.06
59.54
67.24
71.58
73.42
73.09
70.77
66.84
62.03
57.32
53.64
51.56
51.02
51.49
52.08
51.97
50.70
48.23
44.93
41.31
37.67
33.95
29.71
24.27
17.09
7.99
-2.63
-13.86
-24.60
-33.91
-41.35
-47.16
-52.13
-57.35
-63.91
-72.69
-84.12
-97.88
-112.63
-125.81
-133.91
-133.39
-121.89
-99.29
-68.19
-33.18
0.57
28.92
49.91
63.76
72.12
76.93
79.51
80.33
79.33
76.49
72.19
67.23
62.47
58.45
55.15
52.05
48.55
44.30
39.48
34.72
30.71
27.80
25.71
23.53
20.05
14.30
5.94
-4.54
-15.96
-26.97
-36.49
-44.19
-50.50
-56.40
-63.08
-71.63
-82.82
-96.91
-113.30
-130.22
-144.70
-153.00
-151.65
-138.73
-114.82
-83.06
-48.20
-15.08
12.76
33.90
48.79
59.05
66.44
72.26
77.08
80.87
83.35
84.23
83.50
81.45
78.56
75.36
72.18
69.07
65.90
62.54
59.02
55.57
52.41
49.53
46.55
42.74
37.26
29.53
19.52
7.83
-4.51
-16.33
-26.82
-35.72
-43.33
-50.42
-57.86
-66.52
-77.15
-90.25
-105.81
-122.88
-139.21
-151.33
-155.37
-148.36
-129.42
-100.48
-65.74
-30.30
1.50
27.17
46.37
60.36
70.87
79.34
86.47
92.35
96.84
99.77
101.15
101.11
99.82
97.47
94.28
90.55
86.70
83.12
80.09
77.56
75.15
72.26
68.26
62.76
55.77
47.64
38.86
29.80
20.57
11.05
1.05
-9.37
-19.90
-30.04
-39.34
-47.62
-55.10
-62.36
-70.30
-79.93
-92.07
-106.86
-123.18
-138.44
-148.84
-150.38
-140.44
-118.87
-88.32
-53.49
-19.46
9.86
32.70
49.34
61.23
70.06
76.95
82.31
86.07
88.05
88.27
86.97
84.55
81.49
78.18
74.89
71.81
69.04
66.65
64.64
62.89
61.11
58.84
55.62
51.10
45.18
37.97
29.73
20.71
11.07
0.90
-9.60
-20.11
-30.16
-39.34
-47.41
-54.50
-61.08
-67.93
-75.99
-86.16
-98.81
-113.26
-127.45
-138.07
-141.31
-134.19
-115.80
-87.98
-54.78
-21.20
8.44
31.76
48.50
59.97
67.94
73.73
77.87
80.21
80.49
78.76
75.59
71.87
68.53
66.08
64.51
63.33
61.94
59.93
57.30
54.44
51.77
49.48
47.20
44.12
39.29
32.03
22.28
10.71
-1.50
-13.04
-22.97
-31.01
-37.53
-43.35
-49.45
-56.75
-65.99
-77.63
-91.44
-106.20
-119.46
-127.88
-128.11
-118.11
-98.07
-70.57
-39.84
-10.28
14.87
34.30
48.47
58.79
66.73
73.26
78.66
82.81
85.59
86.97
87.09
86.20
84.47
82.01
78.92
75.30
71.33
67.18
63.03
58.95
54.88
50.73
46.29
41.34
35.55
28.58
20.19
10.39
-0.44
-11.56
-22.16
-31.55
-39.44
-46.04
-51.97
-58.03
-65.20
-74.29
-85.73
-99.12
-112.92
-124.33
-129.98
-126.98
-114.00
-92.09
-64.37
-35.04
-7.93
14.56
31.84
44.69
54.44
62.25
68.72
73.95
77.82
80.29
81.35
81.12
79.69
77.13
73.59
69.36
64.96
61.02
58.12
56.49
55.80
55.23
53.73
50.36
44.74
37.15
28.43
19.66
11.72
4.95
-0.91
-6.58
-12.84
-20.21
-28.64
-37.62
-46.30
-53.95
-60.21
-65.19
-69.60
-74.48
-81.03
-90.19
-102.07
-115.48
-127.77
-135.33
-134.66
-123.77
-103.06
-75.46
-45.37
-17.16
6.19
23.73
36.28
45.46
52.76
59.03
64.46
68.87
72.12
74.21
75.28
75.47
74.81
73.28
70.84
67.63
64.00
60.53
57.74
55.93
54.95
54.22
52.86
50.01
45.18
38.34
30.09
21.33
13.10
6.14
0.71
-3.54
-7.38
-11.77
-17.36
-24.31
-32.13
-39.98
-46.93
-52.42
-56.44
-59.58
-62.77
-67.14
-73.74
-83.14
-95.10
-108.22
-119.81
-126.44
-124.87
-113.29
-92.19
-64.43
-34.30
-6.15
17.03
34.18
46.01
54.12
60.03
64.57
67.90
69.77
70.04
68.88
66.80
64.34
61.89
59.54
57.13
54.51
51.64
48.74
46.17
44.23
42.92
41.86
40.31
37.52
33.03
26.88
19.64
12.21
5.47
-0.03
-4.28
-7.79
-11.33
-15.65
-21.15
-27.73
-34.84
-41.72
-47.61
-52.10
-55.23
-57.53
-59.86
-63.28
-68.72
-76.69
-86.91
-97.98
-107.45
-112.24
-109.61
-98.12
-78.35
-52.85
-25.47
-0.11
20.35
34.70
43.26
47.38
48.66
48.39
47.29
45.59
43.24
40.19
36.51
32.54
28.71
25.45
23.07
21.62
20.95
20.76
20.63
20.07
18.53
15.53
10.81
4.69
-1.90
-7.48
-10.46
-9.79
-5.41
1.60
9.39
15.98
19.94
20.74
18.63
14.34
8.60
2.02
-4.97
-11.87
-18.08
-22.99
-26.20
-27.85
-28.51
-29.17
-30.90
-34.57
-40.58
-48.61
-57.51
-65.32
-69.72
-68.61
-60.96
-47.26
-29.49
-10.48
6.98
21.00
30.82
36.54
38.60
37.33
32.91
25.63
16.23
5.96
-3.66
-11.27
-16.22
-18.75
-19.88
-20.95
-23.11
-26.92
-32.18
-38.13
-43.91
-48.97
-53.38
-57.80
-63.26
-70.84
-81.28
-94.65
-110.01
-125.18
-136.98
-141.82
-136.85
-121.04
-95.77
-64.53
-31.82
-1.76
23.03
41.67
54.67
63.11
68.04
70.19
70.18
68.68
66.43
64.11
62.07
60.26
58.24
55.55
52.00
47.82
43.59
39.93
37.16
34.93
32.31
28.08
21.14
11.12
-1.48
-15.35
-28.90
-40.82
-50.61
-58.79
-66.75
-76.30
-88.97
-105.25
-123.95
-142.12
-155.56
-159.88
-152.11
-131.78
-101.32
-65.36
-29.19
2.88
28.59
47.88
62.17
73.26
82.45
90.19
96.28
100.25
101.93
101.60
99.88
97.50
94.86
91.95
88.41
83.90
78.43
72.53
67.05
62.72
59.66
57.23
54.13
48.99
40.90
29.85
16.81
3.24
-9.41
-20.27
-29.37
-37.47
-45.80
-55.62
-67.99
-83.35
-101.24
-119.96
-136.45
-146.80
-147.23
-135.50
-111.88
-79.38
-42.91
-7.64
22.59
46.15
63.49
76.23
86.09
94.13
100.58
105.21
107.81
108.45
107.49
105.44
102.75
99.71
96.48
93.16
89.90
86.82
83.95
81.08
77.85
73.78
68.50
61.92
54.27
45.94
37.32
28.59
19.66
10.33
0.43
-9.94
-20.37
-30.35
-39.44
-47.58
-55.13
-62.80
-71.53
-82.24
-95.34
-110.36
-125.47
-137.51
-142.69
-137.72
-121.24
-94.49
-61.18
-26.27
5.66
31.76
51.31
65.19
74.91
81.67
86.09
88.34
88.65
87.47
85.54
83.51
81.73
80.12
78.35
76.11
73.36
70.34
67.48
65.08
63.13
61.20
58.61
54.68
49.05
41.89
33.85
25.82
18.54
12.24
6.61
0.88
-5.67
-13.43
-22.20
-31.28
-39.81
-47.21
-53.34
-58.73
-64.34
-71.35
-80.76
-92.84
-106.70
-120.06
-129.50
-131.45
-123.34
-104.74
-77.76
-46.39
-15.21
12.01
33.32
48.65
59.15
66.28
71.08
74.02
75.22
74.87
73.43
71.57
69.94
68.86
68.24
67.71
66.90
65.71
64.33
63.14
62.36
61.82
60.92
58.82
54.79
48.58
40.56
31.62
22.85
15.12
8.73
3.32
-1.89
-7.76
-14.84
-23.02
-31.72
-39.98
-46.98
-52.32
-56.16
-59.27
-62.73
-67.74
-75.13
-85.05
-96.48
-107.22
-114.19
-114.27
-105.40
-87.46
-62.47
-34.08
-6.37
17.33
35.32
47.57
55.19
59.59
61.88
62.66
62.16
60.57
58.23
55.62
53.18
51.23
49.81
48.81
48.05
47.41
46.85
46.29
45.61
44.54
42.80
40.19
36.65
32.31
27.51
22.67
18.20
14.39
11.30
8.77
6.54
4.29
1.78
-1.07
-4.29
-7.88
-11.86
-16.26
-21.01
-25.97
-30.87
-35.41
-39.36
-42.67
-45.55
-48.45
-52.05
-57.02
-63.65
-71.44
-78.92
-83.77
-83.50
-76.41
-62.37
-43.10
-21.73
-1.75
14.15
24.71
30.14
31.49
29.89
26.02
20.14
12.47
3.62
-5.28
-12.83
-17.99
-20.42
-20.79
-20.45
-20.91
-23.24
-27.59
-33.34
-39.35
-44.65
-48.83
-52.28
-55.93
-60.89
-68.04
-77.83
-90.11
-104.07
-117.99
-129.28
-134.81
-131.84
-118.86
-96.51
-67.53
-36.00
-6.10
19.09
38.14
51.11
58.97
62.95
64.14
63.40
61.42
58.73
55.69
52.44
48.96
45.18
41.11
36.96
33.11
29.96
27.70
26.16
24.67
22.25
17.92
11.06
1.72
-9.38
-21.11
-32.36
-42.44
-51.31
-59.63
-68.60
-79.61
-93.49
-109.96
-127.00
-141.11
-148.07
-144.50
-129.15
-103.57
-71.68
-38.37
-7.92
17.18
36.35
50.43
60.77
68.47
74.16
78.15
80.60
81.69
81.61
80.49
78.35
75.15
70.87
65.72
60.12
54.77
50.33
47.25
45.37
43.91
41.59
37.07
29.51
18.89
6.05
-7.56
-20.46
-31.70
-41.13
-49.51
-58.28
-69.14
-83.35
-101.04
-120.57
-138.48
-150.25
-151.70
-140.54
-117.37
-85.54
-50.08
-15.90
13.54
36.94
54.71
68.13
78.39
86.19
91.73
95.04
96.33
96.06
94.83
93.15
91.23
88.91
85.86
81.82
76.81
71.30
66.00
61.60
58.36
55.83
52.94
48.30
40.75
29.86
16.27
1.40
-12.99
-25.45
-35.41
-43.35
-50.53
-58.59
-69.01
-82.64
-99.31
-117.55
-134.53
-146.49
-149.59
-141.22
-121.03
-91.32
-56.46
-21.43
9.70
34.81
53.87
68.13
79.12
87.88
94.67
99.25
101.37
101.08
98.88
95.52
91.83
88.48
85.84
83.99
82.70
81.61
80.33
78.59
76.20
73.04
68.97
63.82
57.44
49.77
40.89
30.99
20.37
9.32
-1.81
-12.69
-22.96
-32.33
-40.73
-48.38
-55.92
-64.26
-74.43
-87.13
-102.15
-118.04
-131.87
-139.85
-138.49
-125.83
-102.42
-71.34
-37.23
-4.79
22.62
43.60
58.56
68.84
75.82
80.42
83.03
83.88
83.30
81.80
80.01
78.41
77.21
76.32
75.56
74.82
74.14
73.73
73.63
73.57
72.86
70.61
66.13
59.29
50.62
41.17
32.02
23.89
16.82
10.23
3.29
-4.67
-13.84
-23.84
-33.85
-42.99
-50.70
-57.02
-62.62
-68.68
-76.55
-87.12
-100.28
-114.52
-126.95
-133.99
-132.39
-120.49
-98.91
-70.52
-39.55
-10.16
14.69
33.87
47.81
57.81
65.17
70.74
74.79
77.30
78.26
77.80
76.27
74.10
71.77
69.61
67.85
66.58
65.80
65.48
65.49
65.59
65.33
64.11
61.34
56.75
50.65
43.91
37.76
33.28
30.89
30.13
29.86
28.82
26.17
21.81
16.35
10.54
4.93
-0.46
-5.94
-11.92
-18.45
-25.21
-31.55
-36.88
-40.92
-43.86
-46.33
-49.26
-53.52
-59.70
-67.72
-76.55
-84.16
-88.00
-85.70
-76.00
-59.33
-37.85
-14.77
6.63
23.92
35.95
42.74
44.97
43.56
39.35
33.11
25.65
17.86
10.62
4.68
0.42
-2.15
-3.37
-3.76
-3.84
-4.07
-4.83
-6.41
-9.12
-13.25
-18.87
-25.78
-33.47
-41.16
-48.08
-53.72
-58.05
-61.55
-65.20
-70.23
-77.71
-88.01
-100.19
-111.82
-119.36
-119.19
-109.00
-88.92
-61.60
-31.42
-2.99
20.37
37.28
48.20
54.46
57.36
57.67
55.69
51.63
46.06
40.01
34.71
31.17
29.85
30.43
31.99
33.44
33.87
32.92
30.79
28.01
25.05
22.00
18.46
13.71
7.10
-1.60
-12.02
-23.18
-33.93
-43.29
-50.87
-56.98
-62.51
-68.68
-76.64
-87.20
-100.40
-115.31
-129.77
-140.76
-144.92
-139.63
-124.04
-99.48
-69.22
-37.49
-8.21
16.00
34.15
46.62
54.47
58.83
60.63
60.56
59.17
57.00
54.56
52.20
50.00
47.78
45.26
42.25
38.86
35.51
32.73
30.84
29.64
28.35
25.75
20.68
12.55
1.58
-11.14
-24.10
-35.88
-45.70
-53.69
-60.86
-68.79
-79.00
-92.44
-108.79
-126.22
-141.46
-150.62
-150.20
-138.47
-116.11
-86.18
-53.11
-21.36
5.89
27.31
43.14
54.56
62.85
68.92
73.20
75.87
77.03
76.89
75.71
73.72
71.02
67.61
63.57
59.17
54.97
51.57
49.36
48.06
46.70
43.82
38.05
28.69
16.12
1.69
-12.87
-26.04
-37.19
-46.72
-55.93
-66.54
-80.08
-97.15
-116.90
-136.75
-152.80
-160.71
-157.13
-140.92
-113.73
-79.57
-43.51
-10.07
17.96
39.92
56.68
69.64
79.85
87.69
93.06
95.88
96.45
95.50
93.88
92.21
90.56
88.58
85.76
81.90
77.26
72.53
68.43
65.30
62.75
59.68
54.71
46.74
35.44
21.44
6.12
-8.83
-22.09
-33.04
-42.09
-50.37
-59.53
-71.13
-86.22
-104.76
-125.25
-144.65
-158.84
-163.70
-156.39
-136.49
-106.31
-70.25
-33.40
-0.02
27.58
49.15
65.86
79.26
90.44
99.72
106.81
111.32
113.15
112.65
110.56
107.74
104.90
102.40
100.31
98.40
96.36
93.90
90.86
87.13
82.62
77.19
70.71
63.08
54.31
44.48
33.75
22.27
10.22
-2.18
-14.56
-26.46
-37.41
-47.17
-55.90
-64.22
-73.18
-84.06
-97.85
-114.63
-132.96
-149.69
-160.49
-161.13
-149.06
-124.57
-90.87
-53.05
-16.37
15.43
40.85
60.37
75.47
87.46
96.98
103.98
108.24
109.81
109.27
107.53
105.55
103.92
102.69
101.55
100.13
98.28
96.22
94.29
92.74
91.35
89.43
86.00
80.31
72.21
62.29
51.71
41.72
33.04
25.60
18.56
10.73
1.18
-10.26
-22.94
-35.60
-46.97
-56.29
-63.60
-69.78
-76.21
-84.46
-95.82
-110.83
-128.69
-147.02
-161.99
-169.16
-164.92
-147.86
-119.50
-83.91
-46.44
-11.89
16.75
38.75
55.09
67.41
77.14
85.02
91.15
95.42
97.76
98.42
97.86
96.68
95.42
94.38
93.60
92.84
91.83
90.43
88.75
87.05
85.44
83.68
81.10
76.88
70.38
61.57
51.13
40.26
30.23
21.92
15.46
10.17
4.86
-1.65
-10.06
-20.25
-31.42
-42.37
-52.08
-60.08
-66.68
-72.78
-79.50
-87.94
-98.89
-112.55
-128.20
-143.94
-156.58
-162.27
-157.67
-141.24
-114.22
-80.38
-44.92
-12.75
13.02
31.64
44.24
52.80
59.01
63.70
67.00
68.79
69.12
68.47
67.48
66.69
66.27
66.00
65.49
64.49
63.12
61.77
60.90
60.61
60.47
59.53
56.79
51.52
43.80
34.43
24.74
15.99
8.87
3.17
-2.03
-7.93
-15.40
-24.48
-34.39
-43.89
-51.85
-57.83
-62.34
-66.59
-72.19
-80.49
-92.14
-106.61
-122.01
-135.22
-142.53
-140.74
-128.20
-105.66
-76.10
-43.94
-13.56
11.88
31.13
44.59
53.62
59.65
63.60
65.78
66.16
64.71
61.69
57.75
53.72
50.36
48.10
46.79
45.93
44.93
43.35
41.17
38.64
36.08
33.57
30.82
27.23
22.17
15.22
6.39
-3.84
-14.72
-25.43
-35.32
-44.07
-51.73
-58.70
-65.64
-73.39
-82.83
-94.61
-108.68
-123.90
-137.74
-146.74
-147.40
-137.49
-117.03
-88.52
-56.23
-24.70
2.60
24.17
40.30
52.34
61.73
69.35
75.37
79.60
81.89
82.33
81.25
79.13
76.34
73.12
69.60
65.86
62.01
58.19
54.57
51.25
48.19
45.10
41.49
36.67
30.01
21.12
10.15
-2.22
-14.89
-26.74
-37.05
-45.75
-53.37
-60.79
-68.94
-78.68
-90.63
-104.87
-120.61
-135.81
-147.19
-151.01
-144.30
-126.22
-98.61
-65.57
-32.05
-2.19
21.83
39.87
53.20
63.48
71.92
79.03
84.76
88.80
90.86
90.86
88.97
85.64
81.46
77.04
72.86
69.11
65.76
62.63
59.57
56.50
53.33
49.92
45.95
40.92
34.29
25.80
15.50
3.88
-8.30
-20.20
-31.21
-41.06
-49.87
-58.10
-66.38
-75.45
-86.10
-98.96
-114.07
-130.38
-145.45
-155.76
-157.64
-148.59
-128.36
-99.28
-65.49
-31.61
-1.32
23.46
42.62
57.11
68.16
76.68
83.19
87.92
91.02
92.69
93.14
92.50
90.87
88.38
85.24
81.77
78.38
75.42
73.08
71.20
69.38
67.00
63.38
58.06
51.00
42.55
33.45
24.33
15.54
6.89
-2.14
-12.08
-23.02
-34.51
-45.68
-55.65
-64.03
-71.08
-77.70
-85.17
-94.76
-107.24
-122.44
-138.80
-153.29
-161.92
-160.84
-147.82
-123.27
-90.39
-54.16
-19.67
9.46
31.90
48.36
60.58
70.24
78.23
84.75
89.60
92.68
94.20
94.57
94.12
92.97
91.00
88.08
84.33
80.23
76.63
74.28
73.52
73.91
74.34
73.39
69.83
63.15
53.73
42.77
31.73
21.82
13.57
6.65
0.13
-7.03
-15.56
-25.54
-36.40
-47.21
-57.08
-65.47
-72.35
-78.23
-84.07
-91.16
-100.73
-113.40
-128.52
-143.77
-155.38
-159.17
-151.91
-132.71
-103.57
-68.75
-33.42
-1.96
23.20
41.72
54.80
64.14
71.05
76.16
79.53
81.09
80.99
79.74
77.97
76.19
74.52
72.70
70.42
67.57
64.49
61.84
60.27
59.92
60.14
59.67
57.10
51.56
43.24
33.30
23.48
15.22
9.08
4.45
-0.07
-5.96
-14.02
-24.02
-34.83
-44.99
-53.41
-59.86
-64.98
-69.99
-76.23
-84.72
-95.92
-109.49
-124.11
-137.34
-145.94
-146.53
-136.70
-116.03
-86.65
-52.71
-19.17
9.76
31.82
46.92
56.55
62.64
66.63
69.02
69.68
68.32
64.97
60.27
55.21
50.85
47.96
46.75
46.89
47.70
48.33
48.10
46.61
43.83
39.98
35.36
30.15
24.33
17.73
10.15
1.55
-7.90
-17.80
-27.74
-37.39
-46.60
-55.42
-63.98
-72.44
-81.11
-90.48
-101.22
-113.91
-128.32
-142.86
-154.50
-159.36
-154.08
-137.22
-110.08
-76.49
-41.46
-9.53
16.50
36.05
50.13
60.37
68.06
73.68
77.14
78.26
77.25
74.81
71.94
69.47
67.67
66.21
64.44
61.81
58.24
54.21
50.48
47.61
45.60
43.68
40.54
34.90
26.01
14.02
0.02
-14.37
-27.57
-38.60
-47.42
-54.85
-62.23
-70.96
-82.19
-96.39
-113.06
-130.46
-145.60
-154.70
-154.27
-142.34
-119.34
-88.22
-53.52
-19.95
9.03
31.87
48.84
61.29
70.83
78.62
85.22
90.63
94.57
96.68
96.87
95.30
92.44
88.82
84.87
80.81
76.69
72.52
68.43
64.67
61.40
58.55
55.65
51.93
46.52
38.85
28.74
16.64
3.40
-9.93
-22.47
-33.66
-43.42
-52.08
-60.27
-68.88
-78.95
-91.51
-107.07
-125.00
-143.00
-157.26
-163.36
-157.82
-139.51
-110.36
-74.80
-38.31
-5.60
20.56
39.67
52.88
61.95
68.48
73.47
77.34
80.08
81.57
81.64
80.23
77.39
73.29
68.22
62.64
57.10
52.21
48.48
45.99
44.26
42.17
38.29
31.60
22.14
11.36
1.96
-3.08
-1.52
7.24
21.81
39.32
56.33
69.85
78.06
80.46
77.56
70.42
60.18
47.96
34.79
21.78
10.04
0.59
-5.98
-9.70
-11.29
-11.93
-12.96
-15.59
-20.59
-28.20
-37.87
-48.18
-56.90
-61.42
-59.43
-49.76
-32.98
-11.33
11.83
33.10
49.88
60.89
66.07
66.15
62.18
55.18
46.04
35.63
24.82
14.49
5.46
-1.65
-6.51
-9.17
-10.10
-10.12
-10.28
-11.63
-14.94
-20.45
-27.84
-36.36
-45.07
-53.22
-60.42
-66.82
-72.99
-79.83
-88.38
-99.62
-113.91
-130.41
-146.62
-158.48
-161.44
-151.91
-128.95
-94.92
-54.88
-14.95
19.69
46.22
64.49
76.12
83.27
87.56
89.76
89.97
88.27
85.12
81.36
77.96
75.64
74.61
74.55
74.86
74.92
74.33
72.91
70.62
67.44
63.31
58.12
51.92
44.87
37.21
29.12
20.63
11.57
1.77
-8.74
-19.62
-30.32
-40.31
-49.29
-57.32
-64.82
-72.48
-81.19
-91.82
-104.88
-119.98
-135.21
-147.14
-151.57
-144.87
-125.61
-95.37
-58.51
-20.71
12.87
39.10
57.34
68.75
75.30
78.69
79.94
79.49
77.55
74.43
70.54
66.35
62.24
58.40
54.88
51.69
48.91
46.59
44.71
43.02
40.96
37.70
32.46
24.93
15.67
6.26
-1.12
-4.25
-1.78
6.24
18.26
31.76
43.98
52.78
57.09
56.89
52.87
45.91
36.85
26.39
15.23
4.22
-5.69
-13.70
-19.48
-23.32
-26.17
-29.28
-33.87
-40.63
-49.46
-59.28
-68.10
-73.46
-73.05
-65.54
-51.10
-31.46
-9.56
11.46
28.99
41.54
48.64
50.51
47.65
40.71
30.59
18.61
6.47
-4.08
-11.80
-16.37
-18.49
-19.59
-21.17
-24.20
-28.75
-34.08
-39.18
-43.26
-46.19
-48.63
-51.78
-57.11
-65.75
-78.09
-93.25
-108.81
-121.02
-125.64
-119.27
-100.74
-71.83
-36.88
-1.46
29.39
52.53
67.15
74.24
75.58
72.83
67.14
59.32
50.11
40.52
31.64
24.47
19.62
17.15
16.62
17.27
18.20
18.55
17.59
14.81
9.97
3.18
-5.19
-14.54
-24.21
-33.68
-42.72
-51.44
-60.31
-70.11
-81.69
-95.59
-111.44
-127.42
-140.25
-145.82
-140.56
-122.91
-94.23
-58.55
-21.40
12.06
38.42
56.67
67.73
73.40
75.41
74.82
72.10
67.47
61.27
54.14
46.92
40.53
35.67
32.66
31.40
31.37
31.75
31.59
30.02
26.39
20.42
12.29
2.56
-8.06
-18.86
-29.35
-39.45
-49.48
-60.21
-72.53
-87.12
-103.83
-121.12
-135.99
-144.43
-142.63
-128.42
-102.33
-67.66
-29.58
6.55
36.77
59.35
74.70
84.47
90.50
94.09
95.77
95.51
93.17
88.79
82.76
75.77
68.68
62.33
57.28
53.71
51.30
49.30
46.79
42.86
36.93
28.89
19.04
8.01
-3.52
-15.07
-26.47
-37.94
-50.09
-63.69
-79.31
-96.81
-114.76
-130.33
-139.75
-139.40
-127.12
-103.28
-70.80
-34.39
0.96
31.46
55.23
72.30
83.81
91.17
95.45
97.26
96.86
94.46
90.43
85.25
79.51
73.76
68.43
63.84
60.21
57.60
55.88
54.62
53.03
50.09
44.87
36.84
26.18
13.72
0.66
-11.83
-23.09
-33.19
-42.97
-53.82
-67.15
-83.72
-102.80
-121.80
-136.52
-142.34
-135.85
-116.30
-86.18
-50.34
-14.35
17.38
42.74
61.85
76.12
87.00
95.27
100.84
103.30
102.53
99.05
93.98
88.63
84.03
80.54
77.87
75.37
72.47
68.99
65.23
61.74
58.88
56.41
53.43
48.68
41.11
30.40
17.23
2.99
-10.60
-22.25
-31.44
-38.60
-44.78
-51.34
-59.55
-70.37
-84.15
-100.37
-117.41
-132.41
-141.79
-142.13
-131.39
-109.81
-80.03
-46.29
-13.12
15.98
39.33
56.90
69.71
78.92
85.32
89.29
90.94
90.51
88.44
85.34
81.78
78.17
74.73
71.58
68.87
66.84
65.65
65.18
64.91
63.87
60.95
55.26
46.66
35.94
24.84
15.71
10.80
11.51
17.85
28.26
40.02
50.03
55.78
55.99
50.80
41.39
29.45
16.56
4.01
-7.30
-16.69
-23.75
-28.39
-30.95
-32.25
-33.37
-35.50
-39.58
-46.18
-55.31
-66.21
-77.20
-85.77
-89.07
-84.67
-71.57
-50.77
-25.06
1.73
25.93
45.03
57.93
64.77
66.22
63.08
56.14
46.38
35.20
24.34
15.44
9.53
6.70
6.16
6.67
7.14
6.93
5.91
4.12
1.45
-2.47
-8.12
-15.67
-24.73
-34.39
-43.58
-51.49
-57.98
-63.54
-69.22
-76.20
-85.53
-97.71
-112.14
-126.85
-138.45
-142.91
-136.83
-118.89
-90.65
-56.22
-20.92
10.52
35.28
52.80
64.13
70.86
74.23
74.89
73.19
69.55
64.73
59.72
55.42
52.41
50.77
50.20
50.18
50.20
49.91
49.12
47.75
45.71
42.85
38.99
33.95
27.78
20.70
13.03
5.06
-3.09
-11.46
-20.13
-29.03
-37.89
-46.32
-53.95
-60.66
-66.66
-72.53
-79.14
-87.48
-98.20
-111.12
-124.73
-136.11
-141.52
-137.56
-122.54
-97.36
-65.42
-31.57
-0.51
24.57
42.57
54.09
60.59
63.46
63.55
61.34
57.18
51.69
45.69
40.12
35.72
32.81
31.34
30.94
31.15
31.52
31.69
31.28
29.89
26.94
21.93
14.67
5.73
-3.38
-10.30
-12.52
-8.14
3.21
20.12
39.71
58.50
73.44
82.62
85.51
82.71
75.55
65.57
54.36
43.40
34.05
27.34
23.80
23.30
25.05
27.88
30.59
32.33
32.77
32.02
30.38
28.09
25.14
21.36
16.62
11.03
5.01
-0.78
-5.79
-9.81
-13.12
-16.42
-20.44
-25.69
-32.08
-39.00
-45.51
-50.85
-54.70
-57.52
-60.30
-64.20
-69.99
-77.66
-86.40
-94.98
-102.24
-107.65
-111.55
-114.97
-119.40
-126.33
-136.76
-150.78
-167.10
-182.73
-193.43
-194.68
-183.25
-158.58
-123.29
-82.48
-42.09
-6.96
20.36
39.74
52.65
60.97
66.08
68.69
69.13
67.86
65.64
63.45
62.02
61.55
61.58
61.26
59.83
56.99
53.15
49.20
45.96
43.71
41.84
39.01
33.65
24.78
12.41
-2.28
-17.45
-31.32
-42.88
-52.19
-60.35
-69.04
-79.95
-94.25
-112.03
-131.91
-150.91
-164.88
-169.56
-161.92
-141.45
-110.43
-73.36
-35.42
-0.88
27.87
50.40
67.58
80.58
90.29
97.09
101.14
102.66
102.16
100.32
97.79
95.00
91.97
88.44
84.08
78.77
72.87
67.15
62.53
59.53
57.85
56.23
52.94
46.35
35.77
21.79
6.03
-9.44
-23.02
-34.18
-43.58
-52.74
-63.49
-77.43
-95.27
-116.47
-138.84
-158.73
-171.64
-173.42
-161.70
-136.89
-102.23
-62.89
-24.27
9.54
36.67
57.30
72.88
85.00
94.70
102.32
107.73
110.80
111.67
110.76
108.67
105.93
102.79
99.32
95.45
91.15
86.50
81.71
77.03
72.59
68.32
63.77
58.31
51.17
41.83
30.15
16.58
2.06
-12.20
-25.20
-36.45
-46.15
-55.12
-64.46
-75.34
-88.66
-104.80
-123.24
-142.33
-159.13
-169.82
-170.71
-159.39
-135.81
-102.59
-64.34
-26.24
7.48
34.56
54.90
69.81
81.09
90.08
97.38
102.91
106.37
107.64
106.83
104.37
100.80
96.64
92.34
88.39
85.21
83.14
82.14
81.71
80.86
78.34
73.19
65.24
55.33
45.34
37.61
34.16
35.96
42.49
51.82
61.21
67.98
70.25
67.34
59.69
48.51
35.29
21.48
8.31
-3.26
-12.58
-19.41
-23.98
-27.00
-29.50
-32.60
-37.25
-44.18
-53.68
-65.50
-78.60
-91.01
-100.03
-102.81
-97.25
-82.82
-60.87
-34.38
-7.06
17.70
37.59
51.58
59.64
62.37
60.54
55.11
47.23
38.22
29.54
22.38
17.50
15.04
14.56
15.30
16.47
17.45
17.77
17.12
15.16
11.49
5.81
-1.95
-11.46
-21.95
-32.42
-42.02
-50.30
-57.49
-64.41
-72.36
-82.63
-95.93
-111.76
-128.00
-141.10
-146.88
-141.96
-125.02
-97.54
-63.49
-27.99
4.28
30.38
49.53
62.64
71.29
76.84
79.98
80.84
79.47
76.24
71.94
67.66
64.37
62.59
62.26
62.88
63.78
64.36
64.24
63.19
61.08
57.75
53.08
47.09
39.98
32.08
23.75
15.21
6.46
-2.59
-12.03
-21.86
-31.81
-41.50
-50.55
-58.75
-66.31
-73.92
-82.57
-93.38
-106.92
-122.53
-138.10
-150.14
-154.79
-149.07
-132.12
-105.68
-73.54
-40.33
-10.03
14.99
34.28
48.74
59.82
68.71
76.05
81.87
85.85
87.74
87.43
85.10
81.15
76.13
70.69
65.45
60.97
57.63
55.42
53.89
52.10
48.85
43.21
35.07
25.43
16.33
10.26
9.21
13.94
23.62
36.08
48.44
58.05
63.02
62.57
56.92
47.04
34.31
20.26
6.42
-5.94
-15.88
-22.98
-27.33
-29.51
-30.48
-31.42
-33.53
-37.81
-44.95
-55.05
-67.45
-80.53
-91.78
-98.20
-97.12
-87.10
-68.60
-43.98
-16.79
9.36
31.78
49.20
61.54
69.27
72.82
72.36
68.06
60.54
51.07
41.49
33.67
28.92
27.51
28.61
30.64
31.85
31.07
27.98
23.17
17.71
12.50
7.84
3.22
-2.31
-9.74
-19.42
-30.92
-43.08
-54.51
-64.15
-71.65
-77.48
-82.70
-88.72
-96.81
-107.88
-122.13
-138.60
-155.03
-167.92
-173.25
-167.72
-150.04
-121.56
-86.10
-48.65
-13.79
15.59
38.76
56.60
70.53
81.74
90.69
97.38
101.76
104.04
104.72
104.41
103.53
102.23
100.44
98.11
95.38
92.59
90.17
88.36
87.04
85.70
83.56
80.05
74.89
68.33
60.93
53.34
45.97
38.94
32.05
25.06
17.85
10.59
3.60
-2.89
-8.91
-14.83
-21.27
-28.71
-37.29
-46.64
-56.08
-64.89
-72.62
-79.27
-85.35
-91.74
-99.51
-109.64
-122.61
-137.85
-153.33
-165.65
-170.69
-164.94
-146.87
-117.78
-81.60
-43.59
-8.64
20.10
41.85
57.61
69.15
78.01
84.97
90.13
93.38
94.77
94.65
93.52
91.86
89.92
87.77
85.38
82.82
80.28
78.07
76.48
75.56
74.94
73.98
71.83
67.88
62.00
54.68
46.82
39.37
32.88
27.26
21.91
16.08
9.32
1.80
-5.90
-13.04
-19.20
-24.49
-29.51
-35.03
-41.54
-49.09
-57.25
-65.31
-72.64
-78.87
-84.05
-88.58
-93.23
-98.96
-106.68
-116.78
-128.58
-139.96
-147.57
-147.70
-137.65
-116.97
-87.80
-54.36
-21.43
7.09
29.23
44.94
55.36
61.91
65.62
67.09
66.71
64.98
62.55
60.10
58.13
56.80
55.95
55.26
54.46
53.49
52.49
51.70
51.27
51.05
50.58
49.13
45.99
40.71
33.40
24.70
15.65
7.31
0.31
-5.32
-10.17
-15.20
-21.27
-28.74
-37.29
-46.09
-54.12
-60.72
-65.78
-69.85
-73.97
-79.32
-87.00
-97.57
-110.69
-124.83
-137.21
-144.31
-142.80
-130.77
-108.53
-78.77
-45.70
-13.84
13.39
34.33
49.10
58.93
65.35
69.57
72.17
73.29
72.86
70.92
67.74
63.83
59.84
56.31
53.53
51.49
49.97
48.62
47.11
45.20
42.72
39.55
35.60
30.81
25.13
18.49
10.84
2.12
-7.57
-17.93
-28.55
-38.93
-48.68
-57.64
-65.91
-73.90
-82.25
-91.82
-103.37
-117.16
-132.39
-146.90
-157.35
-160.09
-152.42
-133.74
-105.98
-73.05
-39.62
-9.61
14.72
33.01
46.26
55.99
63.58
69.86
75.14
79.33
82.24
83.69
83.64
82.25
79.84
76.82
73.62
70.59
67.88
65.46
63.14
60.61
57.55
53.63
48.66
42.54
35.18
26.53
16.62
5.58
-6.30
-18.52
-30.51
-41.82
-52.21
-61.75
-70.79
-79.88
-89.72
-101.10
-114.65
-130.40
-147.15
-162.26
-171.93
-172.35
-161.06
-138.10
-106.21
-69.94
-34.20
-2.77
22.55
41.82
56.28
67.45
76.53
84.21
90.74
96.09
100.09
102.53
103.25
102.22
99.68
96.17
92.44
89.25
87.14
86.13
85.71
84.95
82.83
78.63
72.16
63.81
54.30
44.35
34.36
24.33
13.98
3.02
-8.60
-20.63
-32.53
-43.72
-53.75
-62.56
-70.50
-78.38
-87.37
-98.67
-112.95
-129.65
-146.60
-160.09
-165.84
-160.40
-142.50
-113.73
-78.06
-40.67
-6.21
22.34
44.12
59.90
71.29
79.87
86.71
92.30
96.73
99.83
101.39
101.30
99.59
96.52
92.53
88.26
84.36
81.36
79.42
78.28
77.24
75.30
71.55
65.48
57.37
48.37
40.24
34.82
33.40
36.13
41.94
48.82
54.54
57.32
56.38
51.88
44.58
35.36
24.88
13.58
1.96
-9.23
-19.02
-26.45
-31.12
-33.39
-34.39
-35.65
-38.63
-44.31
-53.01
-64.27
-76.78
-88.38
-96.24
-97.52
-90.19
-73.90
-50.37
-22.96
4.33
28.08
46.21
58.14
64.32
65.57
62.69
56.42
47.69
37.80
28.26
20.42
15.06
12.15
11.08
10.96
11.09
11.19
11.26
11.27
10.93
9.52
6.16
0.27
-8.14
-18.34
-29.10
-39.20
-47.84
-54.94
-61.14
-67.65
-75.84
-86.79
-100.59
-115.90
-129.75
-138.14
-137.24
-124.77
-101.18
-69.59
-34.90
-2.07
25.31
45.76
59.74
68.65
73.98
76.65
77.08
75.45
72.10
67.72
63.19
59.38
56.85
55.68
55.45
55.48
55.07
53.77
51.50
48.55
45.28
41.93
38.35
34.06
28.39
20.83
11.25
0.10
-11.72
-23.12
-33.21
-41.59
-48.48
-54.61
-61.01
-68.72
-78.58
-90.96
-105.49
-120.72
-134.09
-142.22
-141.84
-130.91
-109.57
-80.35
-47.45
-15.41
12.25
33.88
49.63
60.80
68.93
75.19
80.14
83.87
86.31
87.34
86.95
85.16
82.14
78.20
73.83
69.58
65.90
62.96
60.58
58.32
55.67
52.27
47.99
42.90
37.12
30.68
23.45
15.27
6.02
-4.18
-15.02
-26.01
-36.63
-46.44
-55.26
-63.19
-70.69
-78.49
-87.52
-98.57
-111.82
-126.44
-140.24
-149.99
-152.28
-144.58
-126.40
-99.60
-67.91
-35.74
-6.82
16.71
34.51
47.45
56.89
63.97
69.36
73.41
76.28
78.19
79.37
80.04
80.25
79.90
78.86
77.06
74.65
72.02
69.64
67.91
66.91
66.26
65.19
62.76
58.20
51.24
42.29
32.26
22.29
13.25
5.43
-1.59
-8.67
-16.68
-26.07
-36.56
-47.35
-57.41
-65.98
-72.84
-78.41
-83.59
-89.53
-97.42
-108.16
-122.00
-137.91
-153.45
-164.97
-168.54
-161.31
-142.67
-114.61
-81.20
-47.20
-16.52
8.66
28.08
42.76
54.14
63.38
71.08
77.34
82.04
85.09
86.61
86.92
86.46
85.61
84.60
83.51
82.37
81.26
80.35
79.82
79.62
79.42
78.61
76.57
72.90
67.57
60.88
53.33
45.36
37.29
29.31
21.56
14.12
7.04
0.19
-6.71
-14.05
-22.21
-31.32
-41.17
-51.20
-60.70
-69.09
-76.21
-82.43
-88.62
-96.00
-105.76
-118.64
-134.40
-151.37
-166.50
-175.80
-175.49
-163.35
-139.63
-107.23
-70.82
-35.36
-4.62
19.70
37.80
51.08
61.08
68.83
74.71
78.75
80.98
81.73
81.57
81.11
80.76
80.57
80.37
79.91
79.13
78.19
77.43
77.13
77.22
77.23
76.31
73.52
68.24
60.43
50.72
40.25
30.27
21.71
14.76
8.91
3.10
-3.75
-12.25
-22.26
-32.95
-43.17
-51.90
-58.76
-64.03
-68.65
-73.81
-80.78
-90.49
-103.30
-118.53
-134.21
-147.09
-153.34
-149.69
-134.59
-109.05
-76.42
-41.34
-8.39
19.22
40.12
54.56
63.69
68.89
71.28
71.61
70.46
68.25
65.45
62.46
59.71
57.53
56.15
55.69
56.10
57.15
58.44
59.48
59.70
58.59
55.86
51.44
45.54
38.52
30.70
22.24
13.16
3.50
-6.65
-16.97
-27.06
-36.54
-45.18
-52.99
-60.18
-67.19
-74.72
-83.72
-95.13
-109.38
-125.75
-141.90
-154.08
-158.16
-150.96
-131.72
-102.48
-67.56
-32.08
-0.37
25.15
44.19
57.94
68.06
75.86
81.91
86.17
88.45
88.76
87.49
85.39
83.24
81.56
80.43
79.55
78.47
76.81
74.46
71.58
68.47
65.29
61.91
57.89
52.56
45.28
35.70
23.95
10.70
-3.08
-16.33
-28.34
-38.91
-48.40
-57.56
-67.35
-78.64
-92.13
-107.97
-125.36
-142.25
-155.33
-160.80
-155.56
-138.49
-111.14
-77.36
-42.07
-9.60
17.43
38.41
54.22
66.27
75.76
83.35
89.27
93.53
96.17
97.26
96.93
95.34
92.76
89.54
86.08
82.74
79.72
77.04
74.54
71.94
68.95
65.23
60.49
54.41
46.71
37.16
25.79
12.94
-0.69
-14.21
-26.87
-38.18
-48.17
-57.26
-66.16
-75.76
-86.97
-100.54
-116.62
-134.35
-151.42
-164.35
-169.31
-163.42
-145.86
-118.35
-84.65
-49.39
-16.66
10.91
32.42
48.35
59.88
68.37
74.87
80.09
84.29
87.42
89.22
89.39
87.80
84.55
80.05
74.88
69.79
65.47
62.33
60.31
58.77
56.55
52.41
45.47
35.89
25.04
15.32
9.41
9.41
16.01
28.21
43.56
58.94
71.41
78.97
80.79
77.06
68.65
56.74
42.58
27.50
12.94
0.30
-9.28
-15.23
-17.82
-18.14
-17.72
-18.11
-20.51
-25.57
-33.46
-43.77
-55.42
-66.55
-74.54
-76.65
-70.81
-56.51
-35.18
-9.87
15.74
38.43
56.20
68.29
74.79
76.10
72.71
65.31
55.05
43.63
33.05
25.03
20.47
19.18
20.05
21.52
22.30
21.70
19.81
17.09
13.92
10.26
5.51
-1.13
-10.10
-21.14
-33.21
-44.93
-55.12
-63.33
-69.99
-76.30
-83.80
-93.90
-107.34
-123.63
-140.68
-154.93
-162.07
-158.37
-142.12
-114.39
-78.94
-40.93
-5.39
24.26
46.68
62.28
72.38
78.38
81.36
82.02
80.87
78.42
75.23
71.90
68.93
66.72
65.44
65.04
65.28
65.79
66.21
66.15
65.32
63.39
60.09
55.24
48.85
41.24
32.91
24.47
16.25
8.25
0.14
-8.48
-17.83
-27.70
-37.57
-46.79
-54.89
-61.80
-67.90
-74.01
-81.22
-90.60
-102.65
-116.71
-130.51
-140.44
-142.40
-133.39
-112.76
-82.73
-47.84
-13.37
16.30
38.80
53.95
63.02
67.74
69.47
68.90
66.27
61.82
56.07
49.89
44.35
40.28
38.06
37.51
38.04
38.93
39.57
39.58
38.59
36.19
31.92
25.59
17.64
9.34
2.66
-0.40
1.49
8.43
19.14
31.34
42.46
50.30
53.43
51.37
44.39
33.39
19.71
5.04
-8.86
-20.48
-28.82
-33.75
-35.90
-36.51
-37.07
-38.97
-43.28
-50.45
-60.05
-70.52
-79.29
-83.31
-79.94
-68.03
-48.43
-23.95
1.63
24.67
42.73
54.84
61.27
62.79
60.21
54.12
45.08
33.95
21.99
10.81
1.95
-3.50
-5.27
-3.98
-1.02
1.90
3.18
1.73
-2.73
-9.74
-18.32
-27.40
-36.20
-44.41
-52.23
-60.20
-69.03
-79.52
-92.31
-107.53
-124.27
-140.28
-151.95
-155.29
-147.15
-126.69
-95.89
-59.21
-22.10
10.75
36.61
55.05
67.33
75.23
80.22
83.01
83.72
82.38
79.26
75.11
70.88
67.51
65.55
64.98
65.33
65.88
65.95
65.08
63.10
60.02
55.90
50.80
44.78
37.87
30.15
21.70
12.60
2.92
-7.20
-17.53
-27.76
-37.54
-46.63
-54.98
-62.88
-70.92
-80.00
-91.10
-104.86
-120.93
-137.52
-151.36
-158.40
-155.07
-139.72
-113.38
-79.61
-43.40
-9.46
18.98
40.87
56.84
68.40
76.97
83.44
88.08
90.92
92.08
91.96
91.17
90.25
89.43
88.59
87.38
85.54
83.14
80.61
78.52
77.16
76.28
75.01
72.18
66.84
58.72
48.45
37.32
26.71
17.52
9.78
2.75
-4.66
-13.30
-23.34
-34.12
-44.56
-53.62
-60.80
-66.41
-71.46
-77.35
-85.45
-96.70
-111.15
-127.59
-143.35
-154.63
-157.51
-149.19
-129.13
-99.54
-64.70
-29.66
1.35
26.02
44.08
56.71
65.54
71.84
76.25
78.90
79.82
79.24
77.71
75.89
74.31
73.14
72.22
71.20
69.86
68.31
66.92
66.04
65.64
65.12
63.51
59.83
53.61
45.11
35.31
25.47
16.65
9.35
3.32
-2.24
-8.31
-15.55
-24.13
-33.53
-42.80
-50.98
-57.50
-62.46
-66.65
-71.35
-77.99
-87.63
-100.52
-115.58
-130.34
-141.23
-144.51
-137.48
-119.55
-92.68
-60.74
-28.35
0.58
23.81
40.97
52.99
61.30
67.07
70.91
73.02
73.49
72.61
70.86
68.87
67.16
65.98
65.33
65.06
65.07
65.30
65.71
66.10
65.99
64.70
61.55
56.21
48.90
40.27
31.15
22.20
13.64
5.29
-3.18
-12.00
-21.10
-30.16
-38.67
-46.24
-52.76
-58.56
-64.37
-71.32
-80.60
-92.91
-107.82
-123.37
-136.22
-142.46
-138.92
-124.44
-100.40
-70.32
-38.71
-9.57
14.55
32.93
46.24
55.83
63.04
68.78
73.55
77.46
80.42
82.25
82.79
82.01
80.06
77.29
74.12
71.04
68.47
66.67
65.59
64.87
63.81
61.52
57.29
50.86
42.66
33.61
24.80
16.97
10.17
3.84
-2.92
-10.76
-19.81
-29.59
-39.34
-48.36
-56.30
-63.35
-70.10
-77.47
-86.49
-97.95
-111.82
-126.76
-140.06
-148.09
-147.51
-136.47
-115.54
-87.58
-56.81
-27.35
-2.14
17.61
32.19
42.66
50.33
56.24
61.09
65.21
68.63
71.11
72.30
71.93
69.96
66.68
62.62
58.39
54.54
51.46
49.25
47.68
46.17
43.82
39.67
33.17
24.64
15.46
7.91
4.47
6.85
15.20
27.90
41.92
53.83
60.87
61.73
56.72
47.35
35.63
23.34
11.67
1.13
-8.20
-16.34
-23.22
-28.64
-32.51
-34.98
-36.63
-38.32
-40.95
-45.24
-51.61
-60.13
-70.53
-82.00
-92.89
-100.75
-102.69
-96.33
-80.83
-57.48
-29.55
-1.21
23.80
43.23
56.59
64.64
68.53
69.20
67.16
62.76
56.61
49.68
43.15
38.08
35.00
33.87
34.14
35.09
36.04
36.52
36.24
35.01
32.66
29.03
24.09
18.05
11.24
4.07
-3.22
-10.64
-18.45
-26.97
-36.29
-46.16
-55.90
-64.73
-72.12
-77.98
-82.85
-87.76
-94.00
-102.67
-114.22
-127.88
-141.34
-151.11
-153.26
-144.90
-125.25
-96.27
-62.10
-27.75
2.54
26.43
43.66
55.46
63.50
69.08
72.81
74.91
75.48
74.90
73.77
72.75
72.28
72.40
72.84
73.17
73.02
72.31
71.16
69.82
68.48
67.10
65.37
62.84
58.99
53.48
46.28
37.79
28.74
20.02
12.41
6.24
1.25
-3.31
-8.39
-14.74
-22.56
-31.41
-40.49
-48.88
-56.03
-61.81
-66.59
-71.05
-76.04
-82.48
-91.12
-102.32
-115.47
-128.74
-139.04
-142.79
-136.99
-120.46
-94.51
-62.62
-29.34
1.08
25.88
44.12
56.32
63.72
67.52
68.63
67.69
65.25
61.94
58.42
55.29
52.90
51.34
50.46
50.02
49.86
49.87
50.05
50.31
50.35
49.67
47.65
43.82
38.13
30.99
23.22
15.63
8.67
2.25
-4.23
-11.49
-20.03
-29.75
-40.01
-49.87
-58.53
-65.71
-71.77
-77.59
-84.39
-93.32
-105.01
-119.13
-133.91
-146.30
-152.52
-149.25
-134.89
-110.29
-78.70
-44.81
-13.23
12.88
32.35
45.84
54.96
61.37
66.12
69.60
71.70
72.27
71.32
69.20
66.53
63.91
61.81
60.41
59.67
59.28
58.93
58.26
57.03
55.09
52.37
48.81
44.29
38.61
31.55
22.97
12.94
1.86
-9.61
-20.72
-30.86
-39.75
-47.55
-54.76
-62.14
-70.61
-81.09
-94.11
-109.34
-125.17
-138.66
-146.18
-144.44
-131.84
-109.17
-79.50
-47.13
-16.30
10.10
30.92
46.50
57.98
66.56
73.15
78.27
82.21
85.12
87.08
88.12
88.15
87.08
84.99
82.16
79.12
76.45
74.53
73.40
72.65
71.56
69.41
65.71
60.34
53.53
45.71
37.31
28.65
19.85
10.90
1.67
-7.92
-17.81
-27.70
-37.12
-45.60
-52.94
-59.40
-65.82
-73.41
-83.40
-96.39
-111.73
-127.19
-139.26
-144.01
-138.50
-121.86
-95.85
-64.29
-31.85
-2.56
21.24
39.13
52.15
61.88
69.68
76.32
81.97
86.46
89.60
91.40
92.04
91.79
90.88
89.40
87.35
84.84
82.13
79.64
77.82
76.85
76.50
76.08
74.65
71.39
65.90
58.37
49.57
40.60
32.46
25.73
20.30
15.42
9.98
3.04
-5.82
-16.27
-27.34
-37.88
-46.92
-54.11
-59.74
-64.66
-69.98
-76.86
-86.09
-97.78
-110.98
-123.57
-132.51
-134.56
-127.37
-110.37
-85.26
-55.55
-25.49
1.25
22.49
37.88
48.41
55.58
60.76
64.75
67.86
70.16
71.64
72.43
72.73
72.76
72.62
72.33
71.84
71.15
70.28
69.32
68.32
67.26
65.99
64.20
61.51
57.67
52.57
46.33
39.29
31.88
24.53
17.57
11.19
5.43
0.17
-4.82
-9.91
-15.39
-21.50
-28.22
-35.26
-42.16
-48.39
-53.64
-57.90
-61.57
-65.38
-70.23
-76.98
-86.08
-97.22
-109.00
-118.96
-124.14
-121.90
-110.90
-91.73
-66.77
-39.49
-13.38
8.99
26.33
38.50
46.10
50.02
51.19
50.52
48.85
46.91
45.23
44.07
43.42
43.15
43.04
42.93
42.72
42.43
42.17
42.00
41.89
41.58
40.63
38.49
34.80
29.55
23.13
16.27
9.68
3.85
-1.17
-5.83
-10.81
-16.74
-23.89
-32.02
-40.48
-48.43
-55.18
-60.42
-64.47
-68.16
-72.73
-79.31
-88.46
-99.57
-110.66
-118.74
-120.59
-114.02
-98.65
-76.26
-50.15
-24.08
-1.05
17.35
30.97
40.56
47.20
51.77
54.80
56.64
57.47
57.45
56.74
55.44
53.69
51.68
49.68
47.96
46.71
45.89
45.28
44.50
43.20
41.18
38.41
34.99
30.97
26.26
20.65
13.87
5.79
-3.43
-13.29
-23.10
-32.21
-40.19
-47.04
-53.18
-59.32
-66.29
-74.81
-85.16
-96.99
-109.07
-119.25
-124.86
-123.42
-113.50
-95.34
-71.09
-44.14
-18.10
4.17
21.34
33.53
41.85
47.75
52.42
56.54
60.27
63.49
65.94
67.43
67.77
66.95
65.07
62.38
59.30
56.32
53.90
52.21
51.07
49.95
48.14
45.03
40.34
34.22
27.07
19.35
11.35
3.06
-5.63
-14.90
-24.65
-34.63
-44.40
-53.52
-61.82
-69.43
-76.87
-84.95
-94.57
-106.25
-119.72
-133.43
-144.70
-150.26
-147.31
-134.65
-113.16
-85.79
-56.49
-29.09
-6.20
11.25
23.78
32.70
39.47
45.15
50.23
54.67
58.10
60.06
60.25
58.64
55.58
51.66
47.52
43.75
40.78
38.74
37.55
36.78
35.69
33.29
28.72
21.70
12.92
4.20
-1.98
-3.26
1.62
12.25
26.66
41.93
55.21
64.47
68.88
68.60
64.35
57.01
47.39
36.31
24.67
13.57
4.07
-3.02
-7.39
-9.36
-9.74
-9.65
-10.20
-12.34
-16.71
-23.61
-32.80
-43.33
-53.40
-60.60
-62.43
-57.10
-44.26
-25.26
-2.75
20.12
40.60
56.88
68.18
74.40
75.78
72.76
66.03
56.78
46.60
37.23
30.13
25.94
24.45
24.68
25.39
25.58
24.75
23.02
20.83
18.56
16.19
13.24
8.94
2.65
-5.76
-15.73
-26.18
-35.89
-44.07
-50.60
-56.08
-61.62
-68.42
-77.46
-89.13
-102.92
-117.21
-129.31
-135.95
-134.12
-122.15
-100.45
-71.62
-39.72
-9.04
17.05
36.92
50.59
59.18
64.09
66.46
66.95
65.95
63.83
61.10
58.41
56.32
55.15
54.87
55.16
55.65
56.03
56.16
55.98
55.34
53.98
51.50
47.60
42.22
35.64
28.38
21.02
13.96
7.26
0.65
-6.21
-13.54
-21.27
-29.02
-36.32
-42.78
-48.41
-53.69
-59.52
-66.96
-76.77
-88.93
-102.17
-113.94
-120.98
-120.21
-109.91
-90.48
-64.45
-35.75
-8.39
14.61
31.90
43.63
50.87
54.85
56.52
56.42
54.86
52.15
48.72
45.04
41.58
38.69
36.58
35.27
34.66
34.57
34.74
34.73
34.04
32.04
28.19
22.32
14.93
7.38
1.65
-0.15
3.48
12.80
26.67
42.75
58.32
71.01
79.34
82.82
81.81
77.10
69.67
60.64
51.20
42.57
35.77
31.42
29.54
29.57
30.60
31.69
32.18
31.82
30.67
28.98
26.99
24.83
22.49
19.89
16.88
13.37
9.37
5.05
0.74
-3.20
-6.50
-9.15
-11.47
-13.94
-17.05
-21.02
-25.74
-30.77
-35.59
-39.76
-43.12
-45.86
-48.44
-51.51
-55.60
-60.92
-67.24
-73.93
-80.22
-85.52
-89.69
-93.17
-96.91
-102.11
-109.84
-120.48
-133.29
-146.17
-155.87
-158.80
-152.17
-135.10
-109.14
-77.90
-45.93
-17.26
5.67
22.32
33.65
41.21
46.39
49.95
52.20
53.19
53.13
52.44
51.70
51.38
51.62
52.23
52.76
52.78
52.02
50.54
48.59
46.50
44.40
42.14
39.24
35.06
29.01
20.81
10.67
-0.71
-12.32
-23.20
-32.82
-41.15
-48.70
-56.27
-64.71
-74.77
-86.84
-100.71
-115.23
-128.27
-136.88
-138.09
-129.95
-112.31
-87.17
-58.07
-29.01
-3.25
17.49
33.10
44.57
53.25
60.26
66.15
71.00
74.61
76.77
77.46
76.89
75.44
73.53
71.51
69.59
67.81
66.10
64.33
62.39
60.18
57.60
54.49
50.60
45.60
39.16
31.05
21.38
10.55
-0.72
-11.69
-21.78
-30.83
-39.03
-46.86
-54.90
-63.81
-74.24
-86.69
-101.13
-116.50
-130.54
-139.95
-141.39
-132.65
-113.65
-86.69
-55.73
-25.10
1.86
23.48
39.81
51.94
61.22
68.65
74.72
79.55
83.08
85.27
86.15
85.86
84.57
82.49
79.94
77.28
74.95
73.32
72.53
72.34
72.16
71.15
68.53
63.95
57.72
50.77
44.47
40.11
38.43
39.31
41.76
44.26
45.28
43.79
39.46
32.61
23.93
14.11
3.76
-6.66
-16.62
-25.48
-32.59
-37.54
-40.41
-41.91
-43.24
-45.74
-50.61
-58.46
-69.01
-80.97
-91.96
-99.02
-99.31
-91.03
-74.17
-50.68
-24.00
2.02
24.18
40.62
50.91
55.56
55.47
51.48
44.33
34.83
24.08
13.43
4.32
-2.10
-5.29
-5.42
-3.34
-0.34
2.13
2.85
1.07
-3.38
-10.05
-18.14
-26.78
-35.32
-43.49
-51.40
-59.47
-68.30
-78.59
-90.94
-105.50
-121.45
-136.60
-147.51
-150.36
-142.26
-122.54
-93.21
-58.51
-23.55
7.31
31.57
48.80
60.08
67.02
70.98
72.74
72.66
71.06
68.48
65.78
63.85
63.23
63.90
65.23
66.30
66.37
65.18
63.02
60.53
58.17
55.87
52.99
48.49
41.44
31.52
19.23
5.84
-7.16
-18.56
-27.90
-35.61
-42.85
-51.01
-61.33
-74.49
-90.34
-107.64
-124.01
-136.28
-141.11
-136.08
-120.60
-96.31
-66.73
-36.04
-7.81
15.85
34.60
49.27
61.08
71.00
79.50
86.62
92.21
96.11
98.27
98.72
97.66
95.42
92.48
89.31
86.36
83.85
81.84
80.18
78.56
76.55
73.71
69.64
64.12
57.23
49.29
40.66
31.59
22.14
12.20
1.69
-9.24
-20.24
-30.80
-40.52
-49.23
-57.19
-65.02
-73.70
-84.29
-97.50
-113.20
-129.89
-144.70
-153.90
-154.12
-143.53
-122.73
-94.69
-63.71
-34.06
-8.68
11.33
26.56
38.37
48.16
56.77
64.44
70.98
76.06
79.45
81.07
81.05
79.55
76.88
73.44
69.69
66.16
63.25
61.13
59.53
57.84
55.21
50.98
44.94
37.66
30.49
25.23
23.59
26.61
34.22
45.08
56.92
67.05
73.04
73.41
67.88
57.42
43.87
29.47
16.30
5.81
-1.40
-5.57
-7.61
-8.73
-10.04
-12.26
-15.58
-19.74
-24.30
-28.91
-33.64
-38.96
-45.69
-54.68
-66.39
-80.43
-95.20
-107.97
-115.39
-114.47
-103.64
-83.51
-56.79
-27.46
0.46
24.10
42.19
54.93
63.24
68.10
70.16
69.78
67.33
63.45
59.13
55.47
53.34
53.06
54.36
56.49
58.54
59.79
59.96
59.20
57.88
56.27
54.32
51.63
47.62
41.88
34.36
25.57
16.39
7.79
0.51
-5.24
-9.79
-13.96
-18.68
-24.68
-32.20
-40.85
-49.81
-58.17
-65.29
-71.05
-75.96
-80.92
-87.04
-95.33
-106.39
-120.02
-134.80
-148.04
-156.11
-155.44
-143.81
-121.35
-90.73
-56.42
-23.20
5.29
27.33
43.06
53.76
60.99
65.91
69.20
71.19
72.12
72.32
72.15
71.94
71.88
72.04
72.37
72.80
73.28
73.77
74.20
74.42
74.15
73.00
70.59
66.70
61.41
55.03
48.06
40.99
34.10
27.45
20.90
14.30
7.63
1.05
-5.11
-10.57
-15.29
-19.54
-23.90
-28.92
-34.88
-41.62
-48.55
-54.98
-60.45
-65.02
-69.28
-74.24
-80.98
-90.28
-102.15
-115.46
-127.82
-135.95
-136.62
-127.68
-109.02
-82.81
-52.89
-23.50
1.86
21.40
34.98
43.61
48.68
51.41
52.54
52.52
51.64
50.20
48.54
46.86
45.25
43.65
42.01
40.37
38.91
37.86
37.32
36.97
36.11
33.81
29.33
22.66
14.75
7.46
3.02
3.27
8.84
18.92
31.35
43.40
52.56
57.23
56.99
52.31
44.18
33.74
22.02
10.01
-1.34
-11.13
-18.61
-23.44
-25.77
-26.27
-25.97
-26.03
-27.57
-31.48
-38.31
-47.99
-59.58
-71.14
-79.96
-83.23
-78.91
-66.57
-47.60
-24.82
-1.52
19.53
36.61
49.16
57.30
61.41
61.79
58.79
52.99
45.42
37.41
30.35
25.26
22.50
21.71
21.91
22.02
21.21
19.28
16.55
13.63
10.88
8.08
4.45
-1.06
-9.13
-19.61
-31.49
-43.23
-53.44
-61.47
-67.63
-73.06
-79.18
-87.30
-98.11
-111.44
-126.10
-139.78
-149.34
-151.45
-143.68
-125.46
-98.55
-66.71
-34.54
-6.00
16.69
33.20
44.64
52.60
58.41
62.86
66.31
68.96
71.06
72.83
74.32
75.34
75.49
74.51
72.42
69.65
66.92
64.89
63.88
63.58
63.17
61.54
57.79
51.57
43.25
33.82
24.41
15.93
8.61
2.06
-4.59
-12.24
-21.27
-31.43
-41.87
-51.53
-59.65
-66.15
-71.68
-77.48
-84.99
-95.36
-108.90
-124.62
-140.06
-151.63
-155.51
-148.89
-131.10
-104.07
-71.74
-38.85
-9.42
14.32
32.05
44.84
54.24
61.53
67.40
72.10
75.62
78.07
79.64
80.58
81.04
81.03
80.45
79.16
77.22
74.91
72.71
71.16
70.48
70.44
70.31
69.03
65.67
59.84
51.82
42.57
33.35
25.17
18.48
12.92
7.58
1.37
-6.46
-15.99
-26.58
-37.14
-46.54
-54.13
-59.88
-64.49
-69.07
-74.96
-83.36
-94.91
-109.28
-124.75
-138.21
-145.82
-144.10
-131.27
-108.07
-77.70
-44.71
-13.60
12.53
32.54
46.91
56.98
64.12
69.19
72.56
74.33
74.68
73.99
72.82
71.72
71.02
70.72
70.56
70.23
69.60
68.77
68.00
67.51
67.20
66.62
65.05
61.80
56.44
49.04
40.21
30.93
22.24
14.83
8.82
3.70
-1.47
-7.63
-15.25
-24.17
-33.60
-42.53
-50.18
-56.31
-61.32
-66.08
-71.68
-79.09
-88.96
-101.24
-114.91
-127.81
-136.85
-138.77
-131.21
-113.70
-88.00
-57.67
-27.03
0.18
21.68
36.85
46.35
51.42
53.30
52.96
51.06
48.03
44.28
40.13
35.89
31.82
28.11
24.90
22.32
20.48
19.44
19.12
19.15
18.80
17.08
13.00
6.08
-3.27
-13.47
-22.11
-26.59
-25.04
-17.06
-3.86
12.07
27.76
40.72
49.39
53.27
52.59
47.96
40.02
29.55
17.47
5.06
-6.25
-15.14
-20.81
-23.20
-23.10
-21.87
-21.09
-22.18
-26.05
-32.94
-42.19
-52.23
-60.77
-65.21
-63.41
-54.37
-38.75
-18.64
3.04
23.53
40.91
54.33
63.61
68.82
69.90
66.71
59.45
49.04
37.24
26.19
17.73
12.76
10.89
10.67
10.25
8.26
4.21
-1.36
-7.38
-12.95
-17.81
-22.48
-27.99
-35.47
-45.76
-59.21
-75.40
-92.98
-109.52
-121.72
-126.13
-120.23
-103.50
-77.81
-46.97
-15.47
12.87
35.92
53.18
65.32
73.37
78.10
79.99
79.43
77.03
73.63
70.12
67.13
64.85
62.94
60.84
58.12
54.67
50.86
47.28
44.41
42.29
40.35
37.48
32.53
24.75
14.18
1.70
-11.28
-23.37
-33.70
-42.28
-49.85
-57.70
-67.17
-79.31
-94.39
-111.57
-128.60
-142.10
-148.28
-144.14
-128.65
-103.37
-72.08
-39.57
-10.07
13.92
31.93
45.03
54.85
62.72
69.29
74.56
78.29
80.29
80.63
79.66
77.84
75.64
73.37
71.20
69.10
66.99
64.75
62.33
59.72
56.91
53.84
50.30
45.93
40.25
32.85
23.59
12.77
1.08
-10.55
-21.32
-30.80
-39.15
-46.93
-54.99
-64.12
-74.98
-87.84
-102.34
-117.25
-130.31
-138.52
-138.86
-129.37
-110.00
-82.92
-51.89
-21.14
5.95
27.61
43.74
55.31
63.64
69.73
74.17
77.22
79.11
80.11
80.53
80.50
79.99
78.82
76.87
74.28
71.47
69.03
67.33
66.35
65.54
63.99
60.85
55.69
48.67
40.49
32.08
24.21
17.17
10.69
4.13
-3.17
-11.52
-20.75
-30.21
-39.15
-46.97
-53.60
-59.57
-65.93
-73.88
-84.40
-97.68
-112.65
-126.90
-137.02
-139.49
-131.93
-113.95
-87.57
-56.58
-25.32
2.59
25.17
42.09
54.21
62.72
68.57
72.28
74.08
74.31
73.52
72.39
71.62
71.49
71.88
72.29
72.14
71.10
69.22
66.95
64.82
63.19
61.91
60.41
57.87
53.60
47.38
39.60
31.17
23.09
16.14
10.47
5.59
0.58
-5.45
-12.97
-21.78
-31.09
-39.87
-47.31
-53.11
-57.58
-61.50
-65.89
-71.88
-80.32
-91.52
-104.72
-117.84
-127.70
-130.81
-124.47
-108.02
-83.14
-53.48
-23.42
3.30
24.54
39.92
50.27
56.89
60.80
62.59
62.53
60.89
58.13
54.93
51.99
49.82
48.57
48.08
47.99
48.00
47.96
47.83
47.58
46.98
45.63
43.02
38.86
33.20
26.52
19.40
12.31
5.38
-1.64
-9.07
-17.00
-25.20
-33.12
-40.20
-46.13
-51.05
-55.52
-60.39
-66.55
-74.70
-84.96
-96.52
-107.43
-114.87
-115.80
-108.07
-91.31
-67.30
-39.47
-11.85
12.20
30.88
44.08
52.80
58.41
61.97
63.99
64.54
63.60
61.42
58.52
55.66
53.44
52.18
51.73
51.61
51.28
50.32
48.63
46.35
43.72
40.84
37.61
33.67
28.61
22.14
14.25
5.22
-4.39
-13.92
-22.77
-30.57
-37.29
-43.32
-49.35
-56.32
-65.11
-76.18
-89.19
-102.75
-114.43
-121.29
-120.63
-111.00
-92.76
-68.14
-40.59
-13.83
9.28
27.30
40.23
49.05
55.03
59.11
61.81
63.22
63.31
62.20
60.21
57.87
55.71
54.10
53.16
52.74
52.59
52.36
51.78
50.68
48.93
46.48
43.22
39.06
33.86
27.49
19.92
11.21
1.61
-8.47
-18.55
-28.10
-36.77
-44.48
-51.44
-58.15
-65.36
-73.91
-84.41
-96.88
-110.33
-122.65
-130.90
-132.15
-124.42
-107.59
-83.52
-55.70
-28.05
-3.85
15.04
28.32
36.84
41.96
44.92
46.65
47.62
48.05
47.95
47.29
46.04
44.13
41.56
38.38
34.77
31.06
27.65
24.88
22.84
21.20
19.23
15.89
10.24
1.94
-8.36
-18.91
-27.19
-30.66
-27.63
-17.95
-3.12
14.18
30.94
44.73
54.17
59.03
59.81
57.26
52.05
44.67
35.63
25.62
15.62
6.70
-0.20
-4.57
-6.55
-6.84
-6.46
-6.45
-7.64
-10.57
-15.54
-22.62
-31.45
-41.09
-49.84
-55.51
-55.92
-49.73
-37.05
-19.54
0.03
18.69
34.13
45.15
51.68
54.23
53.44
49.76
43.48
35.03
25.26
15.43
6.98
1.11
-1.67
-1.73
-0.19
1.45
1.85
0.20
-3.55
-8.92
-15.06
-21.27
-27.19
-32.88
-38.79
-45.51
-53.71
-63.85
-75.95
-89.24
-101.87
-111.16
-114.02
-108.06
-92.52
-68.80
-40.12
-10.63
15.94
37.18
52.35
61.97
67.09
68.76
67.73
64.65
60.23
55.34
50.88
47.52
45.59
45.00
45.43
46.48
47.79
49.08
50.09
50.49
49.87
47.80
43.93
38.15
30.74
22.32
13.71
5.66
-1.41
-7.63
-13.54
-19.80
-26.88
-34.79
-43.03
-50.90
-57.81
-63.63
-68.79
-74.22
-81.06
-90.19
-101.72
-114.51
-126.07
-132.98
-131.88
-120.66
-99.48
-70.93
-39.25
-9.02
16.25
34.88
47.02
53.84
56.77
56.87
54.80
51.05
46.21
41.08
36.50
33.14
31.29
30.75
31.10
31.83
32.58
33.22
33.73
33.97
33.48
31.47
27.09
19.89
10.37
0.17
-8.26
-12.29
-10.07
-1.25
12.91
29.92
46.85
61.14
71.09
75.99
75.99
71.77
64.40
55.09
45.14
35.86
28.36
23.44
21.38
21.94
24.39
27.73
30.98
33.38
34.68
34.96
34.56
33.75
32.53
30.65
27.81
23.85
18.99
13.72
8.67
4.30
0.72
-2.35
-5.42
-9.02
-13.47
-18.71
-24.36
-29.85
-34.63
-38.49
-41.65
-44.71
-48.45
-53.46
-59.81
-67.04
-74.32
-80.79
-85.98
-89.94
-93.20
-96.62
-101.28
-108.20
-118.01
-130.38
-143.63
-154.60
-159.36
-154.42
-138.15
-111.63
-78.46
-43.60
-11.76
13.95
32.47
44.44
51.34
54.63
55.42
54.41
52.16
49.35
46.72
44.93
44.38
44.91
45.91
46.57
46.27
44.89
42.86
40.89
39.50
38.57
37.21
34.16
28.29
19.25
7.65
-5.15
-17.53
-28.22
-36.74
-43.47
-49.53
-56.36
-65.35
-77.31
-92.03
-107.99
-122.43
-131.85
-133.05
-124.27
-105.81
-80.13
-50.98
-22.25
3.10
23.61
39.16
50.43
58.36
63.73
67.15
69.11
70.07
70.38
70.23
69.63
68.42
66.45
63.65
60.16
56.30
52.53
49.32
46.94
45.24
43.63
41.14
36.72
29.67
19.98
8.39
-3.88
-15.55
-25.77
-34.47
-42.32
-50.53
-60.51
-73.29
-88.97
-106.25
-122.40
-133.72
-136.59
-128.70
-109.99
-82.84
-51.35
-20.04
7.48
29.32
45.32
56.49
64.20
69.56
73.17
75.25
75.90
75.35
73.98
72.30
70.66
69.13
67.54
65.59
63.05
59.99
56.80
53.94
51.74
50.06
48.29
45.46
40.62
33.20
23.32
11.74
-0.35
-11.77
-21.69
-29.98
-37.12
-44.13
-52.18
-62.35
-75.25
-90.59
-106.94
-121.74
-131.78
-134.07
-126.77
-109.88
-85.34
-56.48
-27.04
-0.15
22.26
39.58
52.28
61.36
67.90
72.70
76.21
78.58
79.79
79.85
78.93
77.38
75.64
74.15
73.22
73.05
73.69
74.99
76.67
78.24
79.03
78.39
75.91
71.63
66.20
60.81
56.80
55.31
56.76
60.62
65.51
69.65
71.47
70.10
65.67
59.09
51.65
44.55
38.58
34.06
30.98
29.14
28.35
28.37
28.92
29.63
30.10
29.95
29.02
27.37
25.20
22.85
20.55
18.36
16.16
13.72
10.80
7.36
3.50
-0.48
-4.19
-7.39
-10.03
-12.34
-14.71
-17.55
-21.04
-25.05
-29.16
-32.90
-36.03
-38.75
-41.65
-45.45
-50.67
-57.28
-64.73
-72.20
-78.91
-84.54
-89.25
-93.66
-98.61
-105.00
-113.52
-124.29
-136.53
-148.20
-156.30
-157.51
-149.37
-131.30
-105.05
-74.21
-43.09
-15.35
6.90
23.28
34.71
42.49
47.80
51.31
53.38
54.32
54.53
54.57
54.90
55.69
56.69
57.32
56.97
55.42
52.92
50.14
47.76
46.04
44.57
42.41
38.52
32.20
23.55
13.34
2.74
-7.09
-15.49
-22.43
-28.44
-34.45
-41.48
-50.32
-61.07
-72.94
-84.03
-91.83
-93.78
-88.22
-75.03
-55.82
-33.40
-10.93
9.07
25.25
37.40
46.12
52.29
56.66
59.72
61.74
62.80
62.88
61.92
59.85
56.71
52.69
48.16
43.60
39.52
36.22
33.78
31.90
29.97
27.20
22.86
16.57
8.47
-0.76
-10.22
-19.03
-26.78
-33.67
-40.47
-48.27
-58.00
-69.90
-83.16
-95.78
-104.99
-108.01
-103.03
-89.91
-70.34
-47.31
-24.10
-3.40
13.37
26.00
35.12
41.63
46.36
49.77
52.03
53.11
52.92
51.45
48.77
45.16
41.06
37.01
33.51
30.86
29.02
27.60
25.92
23.29
19.23
13.57
6.54
-1.37
-9.58
-17.67
-25.51
-33.32
-41.65
-51.21
-62.46
-75.23
-88.39
-99.79
-106.73
-106.82
-98.87
-83.40
-62.57
-39.46
-17.07
2.48
18.42
30.99
41.02
49.26
56.07
61.42
65.04
66.82
66.87
65.52
63.24
60.40
57.22
53.79
50.25
46.88
44.00
41.85
40.38
39.05
36.99
33.27
27.30
19.08
9.23
-1.21
-11.22
-20.15
-27.92
-35.02
-42.32
-50.87
-61.45
-74.30
-88.68
-102.81
-114.13
-119.86
-117.92
-107.73
-90.39
-68.44
-44.97
-22.74
-3.40
12.61
25.77
36.92
46.73
55.46
62.94
68.82
72.81
74.88
75.25
74.35
72.66
70.61
68.51
66.61
65.02
63.78
62.73
61.52
59.66
56.66
52.21
46.38
39.56
32.27
25.00
17.89
10.76
3.32
-4.65
-13.08
-21.62
-29.80
-37.29
-44.06
-50.40
-56.92
-64.35
-73.33
-84.26
-96.84
-109.93
-121.38
-128.49
-128.69
-120.53
-104.26
-81.94
-56.80
-32.20
-10.60
6.96
20.82
32.01
41.56
49.99
57.15
62.62
66.05
67.49
67.35
66.26
64.85
63.53
62.48
61.75
61.38
61.35
61.56
61.75
61.41
59.95
56.86
51.93
45.36
37.75
29.83
22.15
14.91
7.89
0.65
-7.18
-15.68
-24.52
-33.07
-40.72
-47.19
-52.66
-57.88
-64.00
-72.16
-82.94
-95.89
-109.25
-120.26
-125.82
-123.57
-112.66
-94.12
-70.47
-44.94
-20.45
1.08
18.97
33.56
45.69
56.13
65.31
73.24
79.67
84.37
87.29
88.62
88.75
88.05
86.80
85.15
83.19
81.06
78.98
77.19
75.78
74.58
73.12
70.75
66.82
60.97
53.35
44.56
35.54
27.16
19.91
13.72
8.00
1.98
-4.94
-12.87
-21.47
-30.05
-38.00
-45.02
-51.29
-57.48
-64.54
-73.41
-84.65
-98.02
-112.20
-124.87
-133.15
-134.40
-127.15
-111.68
-89.96
-65.12
-40.35
-17.99
0.86
16.22
28.80
39.36
48.41
56.16
62.58
67.63
71.29
73.60
74.64
74.55
73.56
71.98
70.18
68.53
67.31
66.68
66.55
66.65
66.54
65.68
63.67
60.40
56.04
51.01
45.73
40.46
35.20
29.75
23.96
17.83
11.64
5.73
0.39
-4.44
-9.10
-14.11
-19.87
-26.49
-33.70
-40.98
-47.82
-53.94
-59.38
-64.56
-70.13
-76.87
-85.48
-96.29
-108.93
-122.05
-133.30
-139.83
-139.10
-129.85
-112.59
-89.62
-64.27
-39.81
-18.59
-1.55
11.59
21.83
30.24
37.53
43.98
49.49
53.86
56.91
58.60
59.02
58.34
56.78
54.56
51.90
49.09
46.39
44.01
41.94
39.89
37.30
33.51
28.01
20.63
11.68
1.86
-8.07
-17.52
-26.31
-34.73
-43.28
-52.44
-62.49
-73.29
-84.50
-95.69
-106.56
-117.05
-127.26
-137.33
-147.12
-156.15
-163.39
-167.49
-167.10
-161.28
-149.91
-133.76
-114.47
-94.12
-74.76
-57.80
-43.69
-31.68
-20.11
-6.90
9.53
29.68
52.53
75.94
97.36
114.68
126.87
134.18
137.62
138.50
137.87
136.35
134.20
131.46
128.20
124.49
120.48
116.19
111.61
106.74
101.68
96.70
92.13
88.26
85.18
82.69
80.30
77.45
73.66
68.76
62.94
56.60
50.21
44.07
38.21
32.41
26.47
20.29
13.99
7.86
2.14
-3.09
-8.02
-12.99
-18.40
-24.48
-31.16
-38.10
-44.81
-50.81
-55.93
-60.34
-64.68
-69.84
-76.71
-85.79
-96.75
-108.19
-117.75
-122.56
-120.19
-109.51
-91.19
-67.62
-42.17
-18.11
2.19
17.81
28.96
36.52
41.45
44.42
45.91
46.28
45.98
45.47
45.11
45.05
45.19
45.37
45.44
45.47
45.69
46.29
47.28
48.33
48.79
47.97
45.37
40.90
34.92
28.11
21.18
14.64
8.62
2.84
-3.17
-9.85
-17.40
-25.59
-33.96
-41.90
-48.97
-55.14
-60.81
-66.83
-74.25
-83.82
-95.56
-108.34
-119.84
-127.09
-127.31
-118.96
-102.31
-79.46
-53.64
-28.21
-5.73
12.49
26.32
36.39
43.61
48.84
52.69
55.56
57.67
59.08
59.79
59.81
59.23
58.26
57.12
56.02
55.06
54.22
53.37
52.34
50.93
48.90
46.02
42.11
37.12
31.15
24.41
17.12
9.36
1.18
-7.46
-16.45
-25.59
-34.54
-43.05
-51.08
-58.92
-67.15
-76.51
-87.60
-100.48
-114.29
-127.14
-136.33
-139.02
-133.19
-118.41
-96.17
-69.55
-42.19
-17.35
2.96
18.18
28.96
36.50
42.06
46.54
50.37
53.53
55.78
56.80
56.41
54.64
51.80
48.33
44.77
41.52
38.86
36.84
35.28
33.72
31.44
27.73
22.20
15.21
8.02
2.64
1.15
4.93
14.05
27.06
41.56
54.89
64.93
70.51
71.40
68.03
61.18
51.77
40.78
29.32
18.48
9.25
2.28
-2.26
-4.68
-5.63
-5.95
-6.53
-8.21
-11.66
-17.23
-24.76
-33.34
-41.35
-46.67
-47.25
-41.86
-30.41
-14.22
4.44
22.98
39.08
51.22
58.69
61.44
59.87
54.70
46.86
37.52
27.97
19.41
12.70
8.19
5.80
5.09
5.50
6.40
7.15
7.06
5.41
1.69
-4.18
-11.83
-20.42
-29.02
-36.89
-43.85
-50.22
-56.79
-64.52
-74.29
-86.44
-100.42
-114.48
-125.74
-130.82
-126.80
-112.40
-88.62
-58.55
-26.57
3.08
27.43
45.26
56.99
63.89
67.36
68.46
67.78
65.68
62.54
58.94
55.53
52.92
51.55
51.46
52.36
53.64
54.65
54.84
53.90
51.85
48.86
45.19
40.93
35.99
30.14
23.12
14.86
5.60
-4.18
-13.86
-22.91
-31.06
-38.33
-45.05
-51.63
-58.55
-66.37
-75.56
-86.47
-98.87
-111.55
-122.14
-127.56
-124.88
-112.55
-91.16
-63.48
-33.63
-5.74
17.20
33.95
44.83
51.01
53.80
54.18
52.74
49.82
45.79
41.14
36.51
32.51
29.51
27.68
26.84
26.67
26.86
27.10
27.11
26.47
24.54
20.64
14.36
6.03
-2.96
-10.40
-13.76
-11.10
-1.80
13.14
31.40
50.08
66.52
78.92
86.43
89.00
87.05
81.32
72.75
62.55
52.19
43.07
36.32
32.45
31.30
32.15
34.04
36.12
37.81
38.83
39.15
38.82
37.80
35.96
33.16
29.34
24.66
19.50
14.39
9.77
5.81
2.29
-1.23
-5.25
-10.04
-15.52
-21.26
-26.69
-31.34
-35.09
-38.27
-41.56
-45.72
-51.32
-58.37
-66.37
-74.47
-81.80
-87.86
-92.70
-96.88
-101.29
-106.97
-114.82
-125.30
-137.94
-150.94
-161.17
-164.83
-158.65
-141.24
-113.89
-80.30
-45.41
-13.72
11.91
30.73
43.62
52.11
57.57
60.77
62.09
61.79
60.32
58.34
56.57
55.49
55.15
55.15
54.84
53.66
51.40
48.31
45.02
42.17
39.97
38.05
35.47
31.16
24.34
14.96
3.77
-7.99
-19.04
-28.54
-36.33
-42.93
-49.31
-56.59
-65.76
-77.34
-91.09
-105.71
-118.84
-127.39
-128.43
-120.11
-102.49
-77.67
-49.21
-21.01
3.83
23.73
38.63
49.47
57.50
63.68
68.52
72.20
74.70
76.04
76.29
75.62
74.20
72.18
69.70
66.89
63.87
60.74
57.55
54.37
51.20
48.05
44.79
41.14
36.64
30.76
23.09
13.59
2.72
-8.62
-19.37
-28.79
-36.69
-43.51
-50.16
-57.70
-66.99
-78.52
-92.15
-106.93
-120.91
-131.24
-134.80
-129.15
-113.51
-89.35
-60.05
-29.83
-2.45
19.86
36.69
48.87
57.77
64.53
69.80
73.81
76.65
78.45
79.39
79.64
79.25
78.17
76.40
74.07
71.50
69.09
67.19
65.89
64.90
63.54
61.05
56.80
50.61
42.79
34.09
25.29
16.96
9.21
1.72
-6.06
-14.57
-23.86
-33.54
-42.94
-51.42
-58.71
-65.04
-71.12
-78.01
-86.79
-98.08
-111.65
-126.05
-138.60
-145.97
-145.05
-134.13
-113.61
-86.09
-55.58
-26.17
-0.94
18.76
33.12
43.26
50.39
55.39
58.68
60.47
60.93
60.39
59.21
57.71
56.02
54.16
52.17
50.19
48.47
47.36
47.00
47.18
47.21
46.04
42.65
36.47
27.90
18.36
10.02
5.16
5.37
10.95
20.71
32.37
43.26
51.10
54.51
53.12
47.41
38.33
26.98
14.49
1.97
-9.47
-18.87
-25.60
-29.53
-31.16
-31.52
-31.89
-33.55
-37.48
-44.20
-53.54
-64.49
-75.09
-82.74
-84.74
-79.19
-65.66
-45.61
-21.92
1.94
22.95
39.21
50.14
56.05
57.62
55.50
50.18
42.21
32.48
22.30
13.19
6.60
3.35
3.41
5.81
8.92
11.04
10.85
7.86
2.36
-4.85
-12.83
-20.93
-28.91
-36.92
-45.37
-54.73
-65.54
-78.26
-93.01
-109.14
-124.79
-136.98
-142.15
-137.30
-121.28
-95.44
-63.34
-29.63
1.47
27.33
47.26
62.03
72.98
81.19
87.15
90.86
92.22
91.38
88.79
85.25
81.61
78.52
76.30
74.87
73.83
72.71
71.10
68.80
65.81
62.19
57.92
52.82
46.61
39.00
29.80
19.10
7.33
-4.85
-16.65
-27.38
-36.76
-44.91
-52.41
-60.12
-69.02
-79.99
-93.48
-109.19
-125.67
-140.20
-149.23
-149.33
-138.40
-116.63
-86.64
-52.67
-19.27
10.11
33.76
51.73
65.10
75.16
82.86
88.70
92.90
95.63
97.14
97.71
97.54
96.67
95.04
92.62
89.59
86.30
83.31
81.11
79.90
79.40
78.86
77.23
73.55
67.29
58.61
48.35
37.75
27.97
19.61
12.52
5.89
-1.28
-9.69
-19.42
-29.86
-40.06
-49.14
-56.67
-62.86
-68.46
-74.62
-82.61
-93.50
-107.57
-123.85
-139.83
-151.75
-155.64
-148.64
-130.15
-102.26
-69.13
-35.58
-5.64
18.52
36.70
50.05
60.14
68.23
74.96
80.43
84.55
87.26
88.69
89.05
88.61
87.52
85.98
84.15
82.24
80.47
78.98
77.76
76.67
75.48
73.88
71.56
68.22
63.61
57.65
50.48
42.51
34.31
26.44
19.24
12.78
6.82
1.00
-5.07
-11.70
-19.08
-27.11
-35.52
-43.78
-51.32
-57.76
-63.07
-67.67
-72.33
-78.03
-85.69
-95.90
-108.58
-122.54
-135.47
-144.09
-145.03
-135.99
-116.70
-89.30
-57.71
-26.38
1.05
22.70
38.45
49.31
56.58
61.19
63.59
64.03
62.93
61.00
59.11
57.99
57.86
58.43
59.07
59.19
58.58
57.49
56.43
55.86
55.81
55.83
55.10
52.78
48.40
42.04
34.30
26.14
18.50
11.98
6.65
2.05
-2.62
-8.19
-15.15
-23.45
-32.52
-41.45
-49.37
-55.78
-60.79
-65.09
-69.77
-76.00
-84.71
-96.11
-109.32
-122.21
-131.62
-134.15
-127.31
-110.49
-85.41
-55.76
-25.92
0.29
20.69
34.93
44.08
49.80
53.55
56.27
58.37
59.90
60.78
60.90
60.21
58.67
56.37
53.53
50.54
47.92
46.09
45.24
45.13
45.03
43.96
41.09
36.15
29.78
23.44
18.96
17.86
20.70
26.88
34.76
42.29
47.63
49.66
48.03
43.00
35.24
25.51
14.67
3.64
-6.62
-15.29
-21.89
-26.42
-29.35
-31.47
-33.70
-36.92
-41.83
-48.81
-57.76
-67.77
-77.10
-83.37
-84.14
-77.69
-63.84
-44.07
-21.14
1.68
21.66
37.09
47.39
52.75
53.67
50.74
44.65
36.42
27.42
19.12
12.72
8.77
7.00
6.60
6.59
6.29
5.50
4.39
3.18
1.84
-0.04
-3.20
-8.31
-15.62
-24.79
-34.88
-44.72
-53.39
-60.55
-66.64
-72.63
-79.76
-89.06
-100.96
-114.85
-128.84
-139.90
-144.45
-139.48
-123.71
-98.29
-66.72
-33.68
-3.61
20.67
38.38
50.41
58.35
63.59
66.86
68.39
68.26
66.76
64.45
61.96
59.74
57.95
56.48
55.21
54.10
53.22
52.71
52.47
52.20
51.32
49.27
45.67
40.50
34.06
26.79
19.07
11.09
2.86
-5.70
-14.64
-23.84
-32.98
-41.68
-49.60
-56.61
-62.87
-68.97
-75.79
-84.32
-95.15
-107.94
-120.98
-131.29
-135.28
-129.99
-114.27
-89.48
-59.10
-27.63
0.86
23.83
40.62
52.00
59.30
63.79
66.31
67.29
67.02
65.76
63.85
61.62
59.36
57.27
55.48
54.05
53.00
52.31
51.91
51.59
51.03
49.75
47.18
42.98
37.24
30.69
24.66
20.63
19.77
22.32
27.47
33.54
38.58
40.99
39.96
35.57
28.47
19.52
9.48
-1.03
-11.41
-20.98
-28.99
-34.92
-38.62
-40.48
-41.41
-42.55
-45.06
-49.80
-57.12
-66.54
-76.58
-84.82
-88.41
-84.95
-73.38
-54.52
-31.00
-6.40
15.89
33.50
45.48
51.96
53.66
51.39
45.86
37.73
27.88
17.45
7.68
-0.29
-5.73
-8.45
-8.82
-7.67
-6.06
-5.10
-5.67
-8.29
-13.01
-19.44
-26.94
-34.84
-42.64
-50.14
-57.44
-64.92
-73.25
-83.22
-95.49
-110.08
-125.75
-139.78
-148.37
-147.78
-135.75
-112.61
-81.35
-46.68
-13.51
14.63
36.21
51.48
61.64
67.87
70.90
71.05
68.60
64.26
59.19
54.69
51.74
50.62
50.77
51.17
50.86
49.38
47.01
44.51
42.49
41.00
39.30
36.15
30.38
21.50
9.98
-2.93
-15.64
-26.87
-36.07
-43.62
-50.62
-58.54
-68.78
-82.15
-98.40
-115.99
-131.96
-142.53
-144.18
-134.74
-114.37
-85.61
-52.71
-20.22
8.32
31.21
48.51
61.40
71.26
79.05
85.10
89.35
91.71
92.29
91.46
89.78
87.76
85.78
83.98
82.29
80.54
78.54
76.16
73.38
70.26
66.81
62.92
58.24
52.32
44.67
35.06
23.66
11.14
-1.58
-13.59
-24.31
-33.66
-42.00
-50.05
-58.62
-68.54
-80.42
-94.36
-109.60
-124.17
-135.13
-139.21
-133.86
-118.30
-93.92
-63.97
-32.49
-3.09
21.93
41.80
56.99
68.45
77.16
83.70
88.36
91.28
92.62
92.67
91.79
90.41
88.78
87.03
85.18
83.24
81.34
79.76
78.71
78.09
77.39
75.77
72.37
66.71
58.97
49.89
40.53
31.72
23.78
16.38
8.76
0.17
-9.72
-20.66
-31.85
-42.30
-51.27
-58.56
-64.64
-70.56
-77.58
-86.84
-98.89
-113.29
-128.33
-141.21
-148.51
-147.18
-135.67
-114.48
-86.19
-54.76
-24.21
2.39
23.62
39.52
51.07
59.47
65.59
69.90
72.53
73.62
73.40
72.30
70.73
69.05
67.41
65.87
64.46
63.29
62.55
62.33
62.40
62.13
60.54
56.70
50.20
41.56
32.33
24.74
20.91
22.05
27.90
36.74
45.95
52.90
55.81
54.18
48.66
40.57
31.27
21.80
12.69
4.18
-3.56
-10.25
-15.62
-19.46
-21.94
-23.60
-25.34
-28.14
-32.81
-39.77
-48.94
-59.63
-70.46
-79.49
-84.41
-83.12
-74.39
-58.42
-36.98
-12.97
10.38
30.46
45.77
56.07
61.83
63.73
62.33
58.06
51.51
43.66
35.89
29.58
25.75
24.64
25.66
27.69
29.48
30.14
29.35
27.33
24.63
21.72
18.75
15.42
11.16
5.39
-2.09
-10.98
-20.53
-29.82
-38.09
-45.06
-50.90
-56.16
-61.61
-68.06
-76.24
-86.58
-98.85
-111.80
-123.00
-129.35
-127.88
-116.90
-96.76
-69.94
-40.28
-11.77
12.57
31.30
44.45
52.91
57.81
60.01
60.15
58.79
56.53
54.08
52.08
50.93
50.64
50.90
51.26
51.38
51.14
50.66
50.16
49.67
48.97
47.57
44.88
40.49
34.38
27.08
19.38
12.09
5.65
-0.07
-5.66
-11.81
-18.90
-26.78
-34.74
-41.92
-47.68
-52.02
-55.55
-59.34
-64.59
-72.21
-82.43
-94.49
-106.53
-115.79
-119.26
-114.60
-101.01
-79.74
-53.71
-26.72
-2.27
17.40
31.58
40.90
46.59
49.87
51.54
51.99
51.31
49.62
47.18
44.48
42.06
40.36
39.57
39.61
40.13
40.72
40.98
40.59
39.27
36.79
32.98
27.92
22.14
16.63
12.69
11.51
13.65
18.75
25.53
32.24
37.14
39.04
37.43
32.46
24.74
15.18
4.77
-5.40
-14.38
-21.44
-26.27
-29.03
-30.37
-31.18
-32.54
-35.42
-40.51
-47.91
-56.88
-65.65
-71.81
-72.86
-67.15
-54.55
-36.63
-16.19
3.65
20.41
32.83
40.72
44.58
44.99
42.34
36.95
29.29
20.25
11.08
3.12
-2.63
-5.72
-6.40
-5.41
-3.77
-2.49
-2.45
-4.16
-7.78
-13.08
-19.55
-26.60
-33.73
-40.64
-47.41
-54.31
-61.91
-70.91
-81.89
-94.99
-109.36
-122.97
-132.78
-135.47
-128.58
-111.50
-85.97
-55.61
-24.80
2.61
24.33
39.83
49.94
56.08
59.57
61.29
61.69
60.97
59.34
57.15
54.84
52.92
51.71
51.35
51.68
52.37
53.00
53.19
52.64
51.18
48.66
45.04
40.32
34.64
28.13
20.94
13.13
4.73
-4.18
-13.43
-22.69
-31.53
-39.62
-46.86
-53.40
-59.71
-66.57
-74.88
-85.55
-98.88
-114.17
-129.30
-140.94
-145.42
-139.98
-123.92
-99.00
-68.99
-38.26
-10.51
12.27
29.85
43.13
53.35
61.34
67.42
71.54
73.79
74.50
74.29
73.86
73.62
73.66
73.68
73.30
72.32
70.87
69.40
68.35
67.86
67.51
66.41
63.58
58.40
50.96
42.13
33.18
25.26
18.91
13.81
9.04
3.48
-3.66
-12.45
-22.28
-32.14
-41.09
-48.66
-55.09
-61.23
-68.31
-77.53
-89.60
-104.27
-120.00
-134.01
-142.78
-143.06
-132.93
-112.65
-84.77
-53.27
-22.46
4.41
25.74
41.58
52.97
61.14
66.87
70.54
72.29
72.36
71.31
69.90
68.86
68.55
68.92
69.56
69.98
69.88
69.31
68.56
67.99
67.73
67.54
66.78
64.65
60.50
54.15
46.06
37.20
28.73
21.53
15.80
10.96
5.96
-0.27
-8.25
-17.74
-27.78
-37.23
-45.23
-51.55
-56.74
-61.83
-68.00
-76.21
-86.87
-99.58
-112.90
-124.40
-130.98
-129.70
-118.76
-98.34
-70.76
-39.89
-9.89
15.92
35.86
49.88
58.95
64.29
66.89
67.31
65.91
63.08
59.41
55.61
52.39
50.21
49.28
49.47
50.42
51.67
52.71
53.11
52.55
50.82
47.92
43.94
39.01
33.30
26.88
19.76
11.94
3.48
-5.45
-14.58
-23.52
-31.91
-39.51
-46.22
-52.33
-58.41
-65.31
-73.94
-84.87
-97.83
-111.38
-122.90
-129.21
-127.47
-116.23
-96.00
-69.32
-39.87
-11.48
12.98
32.13
46.05
55.70
62.26
66.66
69.39
70.64
70.60
69.54
67.91
66.19
64.70
63.52
62.48
61.25
59.55
57.30
54.66
51.87
49.16
46.50
43.54
39.73
34.50
27.54
18.97
9.27
-0.82
-10.56
-19.46
-27.35
-34.41
-41.07
-47.95
-55.79
-65.34
-77.07
-90.81
-105.35
-118.40
-126.94
-128.07
-120.00
-102.82
-78.53
-50.51
-22.50
2.50
22.79
38.07
49.07
56.91
62.69
67.14
70.61
73.11
74.54
74.78
73.85
72.04
69.76
67.50
65.63
64.29
63.36
62.58
61.60
60.07
57.71
54.31
49.75
44.02
37.19
29.43
20.95
11.96
2.69
-6.66
-15.85
-24.63
-32.79
-40.27
-47.22
-53.98
-61.07
-69.16
-78.80
-90.23
-102.91
-115.30
-124.89
-128.70
-124.23
-110.46
-88.39
-60.94
-32.03
-5.40
16.51
32.91
44.47
52.54
58.48
63.14
66.80
69.42
70.86
71.14
70.43
69.08
67.41
65.73
64.19
62.93
62.06
61.64
61.67
61.89
61.83
60.86
58.46
54.49
49.38
44.04
39.58
36.89
36.20
37.02
38.21
38.50
36.88
32.95
26.93
19.42
11.14
2.64
-5.65
-13.39
-20.17
-25.66
-29.68
-32.48
-34.73
-37.35
-41.29
-47.17
-55.11
-64.59
-74.34
-82.44
-86.61
-84.80
-75.83
-59.95
-38.99
-15.88
6.15
24.53
37.80
45.71
48.81
47.96
43.97
37.57
29.49
20.60
11.91
4.37
-1.28
-4.76
-6.17
-5.99
-4.87
-3.50
-2.54
-2.58
-4.09
-7.34
-12.31
-18.72
-25.96
-33.39
-40.47
-46.94
-53.03
-59.31
-66.65
-75.85
-87.25
-100.17
-112.72
-121.87
-124.27
-117.34
-100.33
-74.90
-44.72
-14.33
12.29
32.77
46.69
55.03
59.26
60.54
59.44
56.16
51.09
45.06
39.39
35.40
33.91
34.87
37.39
40.07
41.66
41.50
39.70
36.95
34.04
31.43
28.95
25.90
21.41
14.88
6.34
-3.59
-13.90
-23.63
-32.19
-39.51
-45.96
-52.22
-59.09
-67.40
-77.79
-90.36
-104.31
-117.66
-127.49
-130.63
-124.73
-109.22
-85.69
-57.38
-28.22
-1.57
20.56
37.60
50.03
58.67
64.24
67.23
67.98
66.93
64.71
62.02
59.53
57.66
56.47
55.70
54.93
53.82
52.24
50.34
48.41
46.62
44.80
42.29
38.19
31.73
22.63
11.34
-1.05
-13.16
-23.86
-32.68
-39.92
-46.60
-54.13
-63.82
-76.42
-91.68
-108.06
-122.80
-132.48
-133.92
-125.28
-106.82
-80.91
-51.42
-22.46
2.79
22.78
37.55
48.18
55.98
61.87
66.24
69.06
70.27
70.00
68.66
66.82
65.01
63.54
62.34
61.09
59.43
57.16
54.40
51.49
48.73
46.13
43.35
39.61
34.18
26.56
16.78
5.45
-6.42
-17.74
-27.81
-36.51
-44.32
-52.16
-61.00
-71.62
-84.36
-98.99
-114.56
-129.27
-140.55
-145.48
-141.58
-127.77
-104.99
-76.11
-45.18
-16.12
8.36
27.30
41.20
51.37
59.09
65.18
70.01
73.60
75.92
76.96
76.78
75.52
73.34
70.55
67.54
64.79
62.75
61.59
61.13
60.78
59.67
56.96
52.19
45.62
38.34
32.01
28.44
28.92
33.75
41.98
51.74
60.67
66.64
68.31
65.35
58.29
48.23
36.47
24.19
12.42
2.03
-6.31
-12.26
-15.90
-17.84
-19.14
-20.98
-24.43
-30.14
-38.16
-47.88
-57.92
-66.31
-70.76
-69.27
-60.75
-45.51
-25.34
-3.02
18.37
36.34
49.38
57.05
59.66
57.92
52.70
45.00
36.02
27.03
19.25
13.62
10.50
9.74
10.74
12.68
14.74
16.18
16.42
14.95
11.49
6.00
-1.22
-9.57
-18.30
-26.71
-34.34
-41.12
-47.41
-53.91
-61.56
-71.21
-83.17
-96.78
-110.04
-119.86
-122.78
-116.18
-99.33
-73.88
-43.49
-12.62
14.77
36.34
51.57
61.38
67.23
70.42
71.70
71.44
69.90
67.53
65.00
62.97
61.83
61.51
61.66
61.82
61.70
61.28
60.68
59.94
58.89
57.08
53.97
49.23
42.91
35.46
27.57
19.84
12.62
5.85
-0.82
-7.77
-15.15
-22.79
-30.20
-36.82
-42.31
-46.78
-50.80
-55.39
-61.62
-70.29
-81.37
-93.69
-104.86
-111.79
-111.54
-102.34
-84.43
-60.11
-33.07
-7.22
14.47
30.61
41.30
47.62
50.86
52.00
51.60
49.93
47.27
44.11
41.08
38.80
37.61
37.52
38.15
39.04
39.71
39.91
39.54
38.58
36.99
34.66
31.44
27.23
22.00
15.87
8.99
1.54
-6.27
-14.19
-21.97
-29.30
-35.93
-41.73
-46.80
-51.51
-56.50
-62.56
-70.33
-79.98
-90.83
-101.22
-108.67
-110.56
-104.97
-91.52
-71.55
-47.87
-23.85
-2.41
14.69
27.07
35.34
40.58
43.74
45.42
45.86
45.21
43.77
42.02
40.54
39.79
39.93
40.74
41.74
42.34
42.10
40.91
38.95
36.57
34.02
31.27
27.94
23.51
17.55
9.97
1.19
-8.04
-16.79
-24.36
-30.55
-35.71
-40.59
-46.17
-53.38
-62.77
-74.34
-87.13
-99.23
-108.05
-110.96
-106.12
-93.23
-73.72
-50.34
-26.33
-4.43
13.68
27.59
37.80
45.20
50.66
54.78
57.82
59.81
60.71
60.52
59.47
57.94
56.33
54.90
53.66
52.38
50.74
48.53
45.73
42.54
39.16
35.62
31.74
27.16
21.45
14.40
6.12
-2.92
-12.06
-20.63
-28.22
-34.81
-40.76
-46.74
-53.47
-61.65
-71.64
-83.39
-96.13
-108.32
-117.68
-121.74
-118.50
-107.22
-88.90
-66.00
-41.81
-19.38
-0.76
13.37
23.55
30.89
36.50
41.11
44.94
47.88
49.74
50.45
50.07
48.81
46.90
44.59
42.07
39.59
37.45
35.90
35.05
34.58
33.81
31.78
27.73
21.59
14.28
7.54
3.46
3.72
8.91
18.28
29.92
41.37
50.37
55.42
56.02
52.54
45.85
36.94
26.78
16.25
6.29
-2.18
-8.35
-11.81
-12.76
-12.08
-11.01
-10.80
-12.39
-16.19
-22.17
-29.85
-38.30
-46.14
-51.61
-52.88
-48.63
-38.56
-23.69
-6.06
11.79
27.60
39.81
47.70
51.20
50.62
46.54
39.80
31.56
23.19
16.05
11.11
8.70
8.49
9.67
11.32
12.71
13.40
13.23
12.10
9.86
6.27
1.12
-5.56
-13.41
-21.79
-29.97
-37.39
-43.85
-49.63
-55.30
-61.73
-69.77
-79.89
-91.80
-104.07
-114.19
-119.04
-115.87
-103.38
-82.42
-55.83
-27.60
-1.52
19.87
35.75
46.65
53.79
58.27
60.72
61.36
60.43
58.39
56.06
54.32
53.80
54.56
56.10
57.64
58.54
58.64
58.21
57.76
57.60
57.49
56.70
54.36
49.90
43.48
35.88
28.23
21.45
15.82
10.98
6.14
0.50
-6.33
-14.20
-22.47
-30.34
-37.13
-42.54
-46.76
-50.40
-54.37
-59.68
-67.11
-76.85
-88.10
-98.95
-106.60
-108.09
-101.32
-85.93
-63.57
-37.56
-11.77
10.54
27.59
39.13
46.07
49.68
51.01
50.77
49.35
47.17
44.69
42.44
40.83
40.02
39.96
40.41
41.16
42.01
42.83
43.47
43.75
43.38
42.10
39.65
35.95
31.10
25.43
19.33
13.16
7.11
1.13
-4.99
-11.44
-18.28
-25.25
-31.98
-38.05
-43.27
-47.85
-52.36
-57.63
-64.49
-73.31
-83.58
-93.77
-101.43
-103.82
-98.87
-85.99
-66.44
-43.00
-19.08
2.36
19.46
31.78
39.85
44.62
46.87
47.17
45.84
43.30
40.15
37.17
35.09
34.31
34.81
36.07
37.35
37.97
37.55
36.16
34.19
32.11
30.15
28.09
25.36
21.28
15.40
7.79
-0.93
-9.84
-18.08
-25.16
-31.13
-36.39
-41.53
-47.18
-53.86
-62.01
-71.77
-82.61
-93.10
-100.95
-103.54
-98.92
-86.56
-67.81
-45.53
-23.03
-3.08
12.84
24.62
33.06
39.13
43.60
46.82
48.82
49.62
49.36
48.36
47.02
45.76
44.76
44.05
43.45
42.69
41.62
40.25
38.76
37.36
36.17
34.99
33.34
30.60
26.21
19.91
11.91
2.80
-6.57
-15.46
-23.39
-30.33
-36.62
-42.89
-49.84
-58.07
-67.97
-79.33
-91.22
-101.89
-108.96
-110.09
-103.73
-89.82
-69.97
-47.04
-24.23
-4.15
11.79
23.48
31.72
37.65
42.24
46.01
49.08
51.39
52.83
53.38
53.13
52.27
51.07
49.80
48.71
47.94
47.52
47.28
46.88
45.90
43.96
40.87
36.68
31.66
26.12
20.21
13.93
7.08
-0.41
-8.42
-16.58
-24.36
-31.38
-37.56
-43.21
-48.91
-55.32
-63.06
-72.52
-83.67
-95.79
-107.26
-115.73
-118.60
-113.88
-101.08
-81.54
-58.07
-34.09
-12.54
4.93
18.05
27.54
34.51
39.87
44.17
47.63
50.35
52.44
54.00
55.21
56.15
56.82
57.21
57.35
57.35
57.37
57.54
57.82
57.90
57.28
55.36
51.77
46.50
40.01
32.99
26.15
19.88
14.20
8.75
3.15
-2.91
-9.40
-16.07
-22.62
-28.84
-34.75
-40.65
-47.10
-54.78
-64.21
-75.39
-87.46
-98.47
-105.79
-106.75
-99.69
-84.66
-63.51
-39.34
-15.49
5.46
22.19
34.59
43.38
49.48
53.71
56.63
58.59
59.77
60.34
60.46
60.27
59.90
59.46
58.98
58.54
58.24
58.20
58.45
58.87
59.05
58.40
56.33
52.52
47.12
40.69
33.98
27.59
21.71
16.12
10.37
4.02
-3.05
-10.57
-17.99
-24.68
-30.24
-34.68
-38.46
-42.42
-47.49
-54.37
-63.20
-73.24
-82.87
-89.78
-91.65
-86.83
-74.96
-57.25
-36.13
-14.53
4.89
20.43
31.57
38.72
42.78
44.72
45.27
44.84
43.62
41.82
39.74
37.80
36.45
36.02
36.58
37.94
39.68
41.31
42.45
42.81
42.21
40.49
37.58
33.55
28.63
23.21
17.64
12.15
6.71
1.14
-4.78
-11.12
-17.70
-24.20
-30.28
-35.79
-40.90
-46.01
-51.72
-58.60
-66.93
-76.45
-86.09
-94.00
-97.90
-95.83
-86.82
-71.39
-51.53
-30.07
-9.80
7.30
20.46
29.94
36.54
41.06
43.96
45.44
45.56
44.53
42.77
40.82
39.22
38.24
37.91
37.98
38.15
38.12
37.76
37.07
36.13
35.02
33.69
31.92
29.37
25.68
20.61
14.26
7.04
-0.37
-7.27
-13.27
-18.37
-23.02
-27.96
-33.90
-41.37
-50.43
-60.66
-71.05
-80.12
-86.06
-87.13
-82.21
-71.20
-55.26
-36.54
-17.58
-0.59
13.12
23.31
30.56
35.82
39.85
43.00
45.21
46.30
46.24
45.33
44.14
43.24
42.89
42.93
42.89
42.25
40.77
38.60
36.22
34.07
32.34
30.78
28.78
25.74
21.25
15.33
8.37
0.93
-6.37
-13.14
-19.17
-24.48
-29.29
-34.00
-39.20
-45.54
-53.51
-63.01
-73.13
-82.07
-87.56
-87.55
-81.02
-68.44
-51.66
-33.27
-15.76
-0.83
10.95
19.84
26.53
31.69
35.71
38.76
40.89
42.22
42.88
42.99
42.61
41.73
40.50
39.15
38.05
37.44
37.32
37.38
37.12
36.15
34.26
31.51
28.15
24.35
20.13
15.37
9.93
3.81
-2.88
-9.84
-16.80
-23.57
-30.03
-36.21
-42.19
-48.24
-54.79
-62.39
-71.38
-81.53
-91.76
-100.12
-104.25
-102.17
-93.03
-77.55
-57.85
-36.77
-17.04
-0.47
12.23
21.33
27.60
31.87
34.71
36.50
37.46
37.80
37.70
37.34
36.82
36.12
35.21
34.14
33.07
32.22
31.79
31.75
31.77
31.21
29.34
25.67
20.25
13.86
7.94
4.16
3.86
7.53
14.55
23.37
32.01
38.67
42.25
42.40
39.47
34.14
27.16
19.21
10.91
2.89
-4.22
-9.85
-13.66
-15.74
-16.55
-16.91
-17.70
-19.76
-23.61
-29.38
-36.62
-44.23
-50.60
-53.88
-52.50
-45.68
-33.83
-18.47
-1.86
13.71
26.49
35.53
40.68
42.34
41.10
37.63
32.64
26.82
20.94
15.66
11.47
8.58
6.90
6.21
6.19
6.54
6.92
6.90
6.01
3.78
-0.09
-5.53
-12.11
-19.18
-26.06
-32.34
-37.96
-43.21
-48.63
-54.89
-62.59
-71.93
-82.42
-92.57
-100.00
-102.05
-96.65
-83.19
-62.95
-38.81
-14.28
7.49
24.58
36.53
43.99
48.07
49.77
49.75
48.42
46.08
43.22
40.47
38.49
37.73
38.26
39.78
41.73
43.49
44.54
44.55
43.42
41.22
38.15
34.46
30.38
25.96
21.09
15.54
9.09
1.80
-6.03
-13.83
-20.99
-27.10
-32.17
-36.64
-41.19
-46.58
-53.43
-62.00
-72.04
-82.62
-92.00
-97.98
-98.34
-91.63
-77.72
-58.12
-35.54
-13.09
6.55
21.77
32.19
38.31
41.09
41.53
40.46
38.47
36.03
33.48
31.09
29.06
27.52
26.56
26.14
26.14
26.37
26.60
26.59
26.13
24.98
22.82
19.34
14.39
8.24
1.69
-3.94
-7.10
-6.47
-1.38
7.86
20.04
33.33
45.71
55.45
61.45
63.32
61.41
56.55
49.82
42.30
34.91
28.40
23.26
19.84
18.24
18.31
19.62
21.54
23.36
24.57
24.79
23.97
22.22
19.68
16.52
12.90
9.02
5.12
1.42
-1.98
-5.14
-8.29
-11.64
-15.29
-19.11
-22.84
-26.25
-29.34
-32.35
-35.71
-39.77
-44.65
-50.18
-55.90
-61.34
-66.16
-70.36
-74.26
-78.49
-83.83
-91.01
-100.29
-111.24
-122.40
-131.39
-135.35
-131.87
-119.75
-99.69
-74.11
-46.57
-20.66
0.94
16.97
27.55
33.64
36.47
37.10
36.38
34.95
33.42
32.29
31.88
32.16
32.80
33.23
33.05
32.18
30.94
29.83
29.18
28.92
28.38
26.60
22.73
16.40
7.95
-1.69
-11.36
-20.08
-27.50
-33.95
-40.29
-47.61
-56.81
-68.01
-80.42
-92.20
-100.85
-103.88
-99.54
-87.48
-68.97
-46.52
-23.20
-1.77
15.93
29.25
38.48
44.47
48.24
50.62
52.13
53.03
53.36
53.02
51.91
50.02
47.48
44.60
41.78
39.45
37.83
36.91
36.30
35.36
33.26
29.34
23.31
15.37
6.22
-3.25
-12.28
-20.59
-28.50
-36.82
-46.57
-58.46
-72.47
-87.49
-101.27
-110.90
-113.58
-107.56
-92.87
-71.40
-46.34
-21.14
1.47
20.14
34.84
46.32
55.41
62.64
68.09
71.66
73.32
73.34
72.22
70.55
68.83
67.24
65.76
64.14
62.16
59.74
56.99
54.18
51.53
49.01
46.20
42.41
36.98
29.52
20.24
9.87
-0.55
-10.11
-18.34
-25.41
-32.04
-39.22
-47.92
-58.80
-71.94
-86.61
-101.05
-112.72
-118.74
-116.72
-105.65
-86.38
-61.47
-34.46
-8.74
13.28
30.70
43.77
53.44
60.70
66.23
70.40
73.36
75.31
76.51
77.28
77.93
78.64
79.44
80.22
80.85
81.24
81.40
81.47
81.56
81.66
81.61
81.06
79.63
77.02
73.19
68.31
62.77
56.98
51.22
45.59
40.01
34.29
28.29
21.93
15.27
8.50
1.88
-4.32
-9.89
-14.79
-19.14
-23.28
-27.62
-32.63
-38.69
-46.07
-54.83
-64.61
-74.49
-82.85
-87.63
-86.85
-79.25
-64.94
-45.45
-23.45
-1.87
16.82
31.10
40.43
44.99
45.33
42.12
36.17
28.54
20.45
13.14
7.58
4.30
3.29
4.10
6.09
8.49
10.60
11.70
11.17
8.54
3.65
-3.22
-11.43
-20.12
-28.50
-36.13
-43.01
-49.62
-56.76
-65.30
-75.88
-88.43
-101.86
-113.94
-121.64
-122.05
-113.34
-95.63
-71.09
-43.32
-16.21
7.26
25.66
39.05
48.45
55.03
59.62
62.56
63.96
64.00
63.05
61.70
60.55
60.00
60.13
60.75
61.47
61.86
61.55
60.29
57.99
54.67
50.47
45.56
40.08
34.07
27.46
20.14
12.09
3.50
-5.28
-13.77
-21.59
-28.55
-34.71
-40.38
-46.06
-52.32
-59.78
-68.97
-80.04
-92.34
-104.27
-113.28
-116.53
-111.80
-98.43
-77.70
-52.55
-26.68
-3.33
15.52
29.44
39.12
45.71
50.18
53.04
54.44
54.42
53.13
50.90
48.21
45.53
43.16
41.27
39.90
39.01
38.51
38.24
37.89
36.99
34.91
31.07
25.18
17.66
9.72
3.35
0.66
3.28
11.69
24.96
40.99
57.16
71.07
81.11
86.56
87.51
84.52
78.42
70.31
61.47
53.28
46.96
43.21
42.04
42.79
44.44
46.01
46.92
46.99
46.34
45.15
43.48
41.32
38.68
35.73
32.74
29.91
27.30
24.70
21.76
18.23
14.03
9.38
4.71
0.41
-3.25
-6.28
-8.92
-11.56
-14.58
-18.19
-22.42
-27.08
-31.85
-36.41
-40.49
-44.15
-47.72
-51.80
-56.93
-63.33
-70.73
-78.41
-85.54
-91.50
-96.28
-100.44
-105.02
-111.14
-119.62
-130.60
-143.23
-155.47
-164.41
-166.84
-160.30
-144.07
-119.56
-90.06
-59.65
-31.95
-9.16
8.19
20.87
30.19
37.39
43.21
47.96
51.72
54.50
56.35
57.40
57.86
57.93
57.78
57.56
57.37
57.19
56.97
56.58
55.78
54.28
51.79
48.12
43.22
37.27
30.60
23.55
16.35
9.03
1.51
-6.30
-14.41
-22.57
-30.48
-37.88
-44.78
-51.53
-58.82
-67.47
-78.03
-90.40
-103.42
-114.91
-121.98
-121.99
-113.38
-96.39
-73.09
-46.76
-20.87
1.90
20.27
34.29
44.89
53.13
59.82
65.26
69.39
72.07
73.25
73.11
71.98
70.26
68.30
66.32
64.51
63.01
61.95
61.28
60.74
59.78
57.77
54.25
49.11
42.73
35.74
28.70
21.86
14.98
7.64
-0.54
-9.59
-19.13
-28.53
-37.29
-45.14
-52.23
-59.08
-66.42
-75.03
-85.43
-97.53
-110.27
-121.53
-128.43
-128.18
-119.01
-101.01
-76.24
-48.09
-20.33
4.00
23.25
37.18
46.61
52.75
56.71
59.32
61.06
62.24
63.08
63.76
64.38
64.90
65.13
64.90
64.13
63.05
62.02
61.36
61.12
60.91
59.98
57.57
53.26
47.14
39.81
32.05
24.51
17.45
10.69
3.77
-3.77
-12.11
-21.06
-30.07
-38.47
-45.71
-51.59
-56.47
-61.24
-67.13
-75.27
-86.14
-99.02
-111.83
-121.41
-124.47
-118.73
-103.73
-81.17
-54.31
-26.96
-2.29
17.85
33.04
43.87
51.26
56.04
58.64
59.24
58.07
55.51
52.25
49.10
46.80
45.75
45.92
46.98
48.39
49.70
50.56
50.76
50.16
48.68
46.26
42.89
38.54
33.20
26.81
19.35
10.92
1.78
-7.61
-16.66
-24.93
-32.23
-38.70
-44.73
-50.96
-58.06
-66.73
-77.39
-89.80
-102.74
-113.94
-120.45
-119.56
-109.77
-91.52
-67.15
-40.24
-14.39
7.76
25.07
37.78
47.01
54.00
59.68
64.47
68.39
71.22
72.78
73.08
72.39
71.11
69.69
68.41
67.31
66.26
65.02
63.38
61.25
58.59
55.41
51.65
47.16
41.76
35.25
27.59
18.91
9.61
0.23
-8.68
-16.70
-23.73
-30.00
-36.03
-42.51
-50.18
-59.61
-71.03
-84.00
-97.22
-108.51
-115.24
-115.00
-106.52
-90.18
-68.01
-43.20
-18.98
2.22
19.23
32.21
42.07
49.88
56.42
62.04
66.73
70.33
72.73
73.92
74.00
73.16
71.56
69.41
67.00
64.68
62.83
61.70
61.20
60.91
60.06
57.85
53.79
47.85
40.53
32.66
25.04
18.15
11.98
6.08
-0.14
-7.07
-14.75
-22.80
-30.66
-37.88
-44.34
-50.31
-56.50
-63.72
-72.72
-83.80
-96.49
-109.32
-119.88
-125.36
-123.31
-112.62
-94.05
-70.10
-44.31
-20.10
0.19
15.74
27.09
35.45
42.03
47.55
52.20
55.86
58.42
60.04
61.06
61.90
62.74
63.46
63.77
63.38
62.34
60.98
59.83
59.22
59.10
58.89
57.75
54.93
50.11
43.55
36.02
28.52
21.89
16.52
12.24
8.38
4.12
-1.30
-8.16
-16.23
-24.85
-33.20
-40.62
-46.84
-52.04
-56.83
-62.10
-68.78
-77.63
-88.86
-101.74
-114.51
-124.43
-128.53
-124.45
-111.44
-90.71
-65.20
-38.64
-14.41
5.42
20.38
31.27
39.41
46.00
51.60
56.25
59.74
61.98
63.15
63.64
63.84
63.92
63.85
63.47
62.73
61.74
60.77
60.03
59.57
59.16
58.37
56.70
53.69
49.12
43.03
35.77
27.96
20.34
13.52
7.83
3.21
-0.80
-4.80
-9.42
-15.01
-21.59
-28.79
-36.05
-42.78
-48.64
-53.64
-58.22
-63.11
-69.13
-76.94
-86.73
-97.86
-108.78
-117.16
-120.39
-116.36
-104.28
-85.06
-61.16
-35.87
-12.32
7.37
22.41
33.13
40.39
45.03
47.65
48.62
48.26
47.07
45.63
44.47
43.83
43.61
43.48
43.13
42.50
41.83
41.56
41.96
43.01
44.22
44.77
43.82
40.82
35.76
29.20
22.06
15.26
9.31
4.19
-0.66
-5.91
-12.03
-18.97
-26.25
-33.11
-38.94
-43.57
-47.35
-51.05
-55.64
-62.02
-70.70
-81.55
-93.44
-104.34
-111.57
-112.55
-105.64
-90.79
-69.76
-45.48
-21.29
0.12
17.28
29.94
38.73
44.58
48.28
50.37
51.16
50.92
49.90
48.40
46.72
45.08
43.64
42.51
41.77
41.47
41.58
41.95
42.28
42.15
41.15
38.99
35.58
31.05
25.65
19.63
13.16
6.29
-0.99
-8.64
-16.51
-24.36
-31.93
-38.99
-45.45
-51.39
-57.14
-63.31
-70.63
-79.69
-90.44
-101.89
-111.91
-117.74
-116.83
-107.80
-91.09
-68.83
-44.22
-20.44
0.19
16.57
28.70
37.25
43.15
47.28
50.36
52.88
55.07
56.92
58.28
58.91
58.72
57.78
56.36
54.82
53.52
52.69
52.38
52.36
52.15
51.08
48.50
44.09
38.01
30.90
23.58
16.68
10.41
4.42
-1.85
-8.92
-16.95
-25.63
-34.37
-42.53
-49.72
-55.89
-61.47
-67.26
-74.28
-83.35
-94.66
-107.26
-119.02
-127.01
-128.45
-121.61
-106.66
-85.56
-61.51
-37.83
-17.09
-0.53
11.87
20.88
27.52
32.60
36.63
39.82
42.26
43.96
44.86
44.86
43.81
41.70
38.65
35.10
31.67
28.94
27.24
26.41
25.77
24.28
20.87
14.85
6.31
-3.73
-13.40
-20.43
-22.76
-19.24
-10.01
3.51
19.03
34.11
46.74
55.74
60.75
62.00
60.01
55.32
48.52
40.24
31.29
22.63
15.19
9.71
6.45
5.17
5.15
5.50
5.37
4.15
1.48
-2.73
-8.33
-14.78
-21.05
-25.59
-26.69
-23.02
-14.14
-0.91
14.79
30.59
44.33
54.53
60.53
62.32
60.28
55.07
47.62
39.04
30.57
23.25
17.72
14.05
11.88
10.64
9.85
9.21
8.55
7.71
6.38
4.07
0.31
-5.09
-11.94
-19.57
-27.16
-33.98
-39.74
-44.72
-49.57
-55.21
-62.42
-71.68
-82.85
-94.95
-106.06
-113.56
-114.75
-107.68
-92.00
-69.29
-42.69
-15.92
7.83
26.71
40.36
49.40
54.80
57.28
57.29
55.20
51.67
47.67
44.30
42.35
42.06
43.06
44.68
46.29
47.56
48.46
49.06
49.28
48.81
47.20
44.07
39.38
33.42
26.77
19.98
13.45
7.22
1.06
-5.38
-12.33
-19.74
-27.27
-34.35
-40.52
-45.67
-50.17
-54.81
-60.58
-68.30
-78.20
-89.56
-100.63
-108.82
-111.40
-106.29
-92.85
-72.28
-47.27
-21.26
2.57
22.07
36.42
45.93
51.41
53.73
53.54
51.30
47.52
42.86
38.19
34.39
32.10
31.57
32.56
34.45
36.47
38.00
38.65
38.30
37.03
34.99
32.23
28.71
24.30
18.84
12.22
4.53
-3.97
-12.84
-21.58
-29.76
-37.18
-43.86
-50.10
-56.30
-63.04
-70.84
-80.11
-90.85
-102.24
-112.59
-119.42
-120.16
-113.04
-97.87
-76.23
-51.09
-25.85
-3.31
14.99
28.82
38.83
45.98
50.95
54.10
55.51
55.33
53.95
52.02
50.32
49.43
49.52
50.27
51.11
51.38
50.69
49.03
46.71
44.14
41.59
38.91
35.64
31.09
24.68
16.22
6.08
-4.94
-15.90
-25.98
-34.84
-42.61
-49.86
-57.36
-65.92
-76.19
-88.31
-101.68
-114.72
-124.93
-129.45
-125.92
-113.40
-92.86
-67.04
-39.56
-13.82
7.88
24.76
37.31
46.68
54.04
60.16
65.30
69.37
72.14
73.48
73.48
72.44
70.79
69.00
67.40
66.16
65.23
64.41
63.43
62.03
60.03
57.30
53.79
49.48
44.33
38.29
31.32
23.40
14.66
5.38
-4.03
-13.10
-21.50
-29.19
-36.45
-43.78
-51.85
-61.31
-72.54
-85.45
-99.17
-111.86
-120.94
-123.65
-117.94
-103.41
-81.57
-55.54
-29.02
-5.15
14.31
29.16
40.30
49.01
56.35
62.87
68.62
73.44
77.07
79.38
80.34
80.06
78.77
76.81
74.63
72.67
71.27
70.59
70.52
70.64
70.33
68.93
66.00
61.58
56.20
50.82
46.45
43.81
42.97
43.33
43.81
43.24
40.86
36.46
30.43
23.41
16.01
8.58
1.25
-5.90
-12.74
-18.95
-24.22
-28.40
-31.66
-34.56
-37.91
-42.64
-49.37
-58.18
-68.27
-77.90
-84.69
-86.17
-80.67
-67.88
-49.13
-26.95
-4.36
15.97
32.27
43.77
50.44
52.67
51.08
46.44
39.75
32.25
25.27
19.99
17.06
16.51
17.63
19.40
20.80
21.22
20.61
19.33
17.82
16.21
14.17
10.99
6.02
-1.05
-9.87
-19.59
-29.11
-37.57
-44.57
-50.34
-55.64
-61.56
-69.16
-79.11
-91.22
-104.13
-115.36
-121.76
-120.50
-110.06
-90.91
-65.50
-37.53
-10.79
11.98
29.56
42.22
51.01
57.07
61.23
63.82
64.99
64.95
64.10
62.96
61.98
61.33
60.88
60.32
59.39
58.08
56.65
55.52
54.97
54.95
54.95
54.20
51.88
47.55
41.32
33.91
26.33
19.52
13.94
9.41
5.26
0.62
-5.10
-11.98
-19.58
-27.10
-33.74
-39.04
-43.07
-46.44
-50.12
-55.23
-62.66
-72.68
-84.60
-96.61
-106.03
-109.99
-106.28
-94.21
-74.88
-50.92
-25.72
-2.43
16.80
31.10
40.67
46.37
49.16
49.86
49.11
47.40
45.17
42.88
40.92
39.60
38.98
38.95
39.25
39.65
39.94
40.05
39.90
39.37
38.14
35.85
32.22
27.29
21.46
15.42
9.81
4.94
0.55
-3.94
-9.22
-15.61
-22.93
-30.56
-37.76
-44.00
-49.15
-53.63
-58.22
-63.91
-71.54
-81.38
-92.76
-103.82
-111.78
-113.71
-107.62
-93.29
-72.49
-48.44
-24.70
-4.02
12.29
24.27
32.82
38.94
43.39
46.54
48.58
49.68
50.03
49.87
49.34
48.57
47.68
46.84
46.24
45.98
46.03
46.18
46.08
45.40
43.89
41.45
38.05
33.71
28.38
22.03
14.64
6.31
-2.61
-11.67
-20.39
-28.46
-35.77
-42.47
-48.84
-55.22
-62.07
-69.88
-79.09
-89.80
-101.30
-111.84
-118.87
-119.67
-112.40
-96.91
-75.01
-49.90
-25.16
-3.60
13.43
25.98
35.02
41.69
46.84
50.88
53.97
56.18
57.70
58.71
59.30
59.45
59.05
58.01
56.48
54.77
53.30
52.25
51.48
50.47
48.57
45.29
40.52
34.57
27.98
21.26
14.65
8.04
1.20
-6.13
-13.95
-22.03
-30.03
-37.56
-44.43
-50.62
-56.36
-62.15
-68.67
-76.71
-86.70
-98.33
-110.27
-120.11
-124.95
-122.33
-111.17
-92.37
-68.52
-43.16
-19.55
0.10
15.08
25.86
33.55
39.27
43.76
47.39
50.21
52.20
53.32
53.58
53.03
51.80
50.07
48.19
46.52
45.40
45.01
45.28
45.87
46.14
45.35
42.91
38.66
33.07
27.31
22.94
21.40
23.40
28.54
35.33
41.68
45.67
46.17
43.10
37.24
29.68
21.36
12.88
4.58
-3.22
-10.04
-15.40
-18.96
-20.89
-21.88
-23.02
-25.36
-29.73
-36.44
-45.19
-55.08
-64.57
-71.70
-74.45
-71.28
-61.66
-46.33
-27.26
-6.99
11.96
27.78
39.54
47.09
50.74
50.94
48.20
43.18
36.80
30.25
24.77
21.33
20.26
21.24
23.36
25.53
26.86
26.92
25.76
23.69
21.00
17.73
13.65
8.37
1.63
-6.45
-15.35
-24.28
-32.43
-39.34
-45.04
-50.08
-55.34
-61.84
-70.40
-81.27
-93.79
-106.19
-115.80
-119.66
-115.42
-102.30
-81.42
-55.54
-28.26
-2.87
18.40
34.67
46.15
53.57
57.80
59.62
59.70
58.75
57.44
56.35
55.85
55.99
56.56
57.18
57.55
57.57
57.37
57.27
57.52
58.09
58.56
58.19
56.17
52.04
45.88
38.36
30.45
23.06
16.58
10.87
5.33
-0.67
-7.51
-15.13
-23.07
-30.71
-37.52
-43.22
-47.96
-52.29
-57.05
-63.21
-71.45
-81.80
-93.21
-103.60
-110.17
-110.22
-102.16
-86.16
-64.15
-39.33
-15.10
5.91
22.34
34.11
41.93
46.72
49.19
49.72
48.54
45.99
42.60
39.15
36.43
35.06
35.24
36.78
39.05
41.31
42.84
43.18
42.16
39.92
36.77
33.03
28.90
24.39
19.31
13.43
6.64
-0.92
-8.84
-16.65
-23.91
-30.45
-36.34
-41.82
-47.29
-53.22
-60.18
-68.65
-78.74
-89.79
-100.16
-107.40
-108.87
-102.76
-88.80
-68.59
-45.08
-21.65
-1.09
15.13
26.92
35.14
40.94
45.17
48.18
49.92
50.28
49.39
47.75
46.03
44.79
44.23
44.21
44.27
44.02
43.28
42.14
40.86
39.58
38.29
36.58
33.92
29.77
23.79
16.03
6.95
-2.70
-12.15
-20.79
-28.43
-35.29
-41.92
-49.03
-57.28
-67.10
-78.48
-90.78
-102.49
-111.42
-115.06
-111.41
-99.73
-81.02
-57.80
-33.37
-10.79
8.01
22.45
33.13
41.13
47.45
52.69
56.96
60.18
62.27
63.24
63.31
62.73
61.77
60.70
59.67
58.75
57.93
57.12
56.18
54.97
53.34
51.11
48.10
44.10
38.85
32.21
24.19
15.10
5.54
-3.79
-12.31
-19.80
-26.45
-32.78
-39.41
-46.88
-55.55
-65.59
-76.96
-89.17
-101.10
-110.91
-116.22
-114.83
-105.52
-88.68
-66.39
-41.84
-18.32
1.82
17.58
29.32
38.10
45.05
50.87
55.72
59.46
61.90
63.04
63.11
62.45
61.36
59.99
58.42
56.77
55.25
54.20
53.83
54.06
54.33
53.73
51.41
47.02
41.05
34.85
30.17
28.45
30.24
34.94
41.00
46.48
49.67
49.63
46.26
40.16
32.25
23.48
14.62
6.24
-1.22
-7.41
-12.13
-15.37
-17.44
-18.92
-20.61
-23.32
-27.72
-34.08
-42.15
-50.93
-58.76
-63.54
-63.30
-56.88
-44.42
-27.48
-8.60
9.60
25.07
36.77
44.51
48.55
49.15
46.57
41.18
33.77
25.58
18.00
12.18
8.65
7.19
7.12
7.64
8.16
8.37
8.13
7.27
5.47
2.39
-2.18
-8.11
-14.88
-21.80
-28.23
-33.87
-38.84
-43.63
-48.96
-55.62
-64.16
-74.67
-86.42
-97.62
-105.70
-107.86
-102.00
-87.63
-66.19
-40.73
-15.00
7.75
25.55
37.97
45.70
49.89
51.58
51.44
49.83
47.13
43.88
40.86
38.83
38.26
39.21
41.19
43.50
45.38
46.34
46.20
45.05
43.15
40.72
37.85
34.44
30.23
24.90
18.27
10.40
1.67
-7.31
-15.84
-23.42
-29.85
-35.28
-40.14
-44.94
-50.25
-56.66
-64.58
-74.05
-84.29
-93.58
-99.49
-99.51
-92.01
-76.92
-55.95
-32.04
-8.48
12.12
28.37
40.15
48.11
53.19
56.10
57.25
56.83
55.07
52.40
49.46
47.01
45.65
45.60
46.62
48.08
49.19
49.33
48.23
46.02
43.00
39.48
35.58
31.13
25.82
19.35
11.62
2.82
-6.54
-15.75
-24.17
-31.37
-37.36
-42.54
-47.62
-53.42
-60.64
-69.61
-80.16
-91.33
-101.44
-108.15
-109.14
-102.75
-88.79
-68.73
-45.39
-22.06
-1.45
14.96
27.06
35.69
42.02
46.98
51.02
54.19
56.38
57.52
57.69
57.08
55.95
54.51
52.94
51.37
49.88
48.51
47.23
45.94
44.47
42.62
40.21
37.14
33.27
28.50
22.76
16.07
8.56
0.55
-7.61
-15.57
-23.10
-30.11
-36.60
-42.75
-48.91
-55.59
-63.40
-72.81
-83.75
-95.34
-105.76
-112.59
-113.45
-106.86
-92.92
-73.30
-50.89
-28.77
-9.35
6.23
18.10
27.16
34.44
40.60
45.81
49.95
52.89
54.71
55.69
56.16
56.36
56.36
56.08
55.46
54.58
53.69
53.10
52.95
53.04
52.79
51.41
48.24
43.07
36.31
28.84
21.64
15.30
9.85
4.70
-0.88
-7.45
-15.00
-23.02
-30.76
-37.59
-43.28
-48.09
-52.65
-57.78
-64.26
-72.65
-83.01
-94.64
-105.93
-114.52
-117.81
-113.82
-101.98
-83.43
-60.81
-37.36
-15.98
1.64
15.22
25.52
33.68
40.61
46.61
51.48
54.88
56.67
57.13
56.90
56.72
57.10
58.13
59.45
60.56
61.05
60.83
60.12
59.27
58.46
57.55
56.09
53.55
49.58
44.20
37.79
30.96
24.35
18.41
13.32
8.94
4.89
0.66
-4.21
-9.95
-16.39
-23.08
-29.45
-35.09
-39.94
-44.34
-48.92
-54.38
-61.38
-70.31
-81.17
-93.33
-105.29
-114.81
-119.35
-116.81
-106.39
-88.98
-67.01
-43.68
-21.97
-3.76
10.38
20.97
29.04
35.49
40.81
45.04
48.03
49.80
50.59
50.87
51.13
51.72
52.67
53.79
54.72
55.23
55.24
54.81
54.11
53.19
52.02
50.35
47.93
44.51
40.04
34.68
28.83
23.05
17.77
13.23
9.32
5.63
1.61
-3.18
-8.88
-15.28
-21.94
-28.36
-34.25
-39.58
-44.55
-49.55
-55.05
-61.60
-69.66
-79.40
-90.34
-101.15
-109.60
-113.17
-109.75
-98.50
-80.30
-57.57
-33.52
-11.14
7.53
21.73
31.68
38.13
41.85
43.45
43.39
42.15
40.31
38.48
37.18
36.66
36.95
37.82
39.08
40.57
42.22
43.92
45.46
46.45
46.44
45.03
42.04
37.58
32.01
25.77
19.21
12.56
5.85
-0.95
-7.86
-14.84
-21.77
-28.46
-34.69
-40.37
-45.64
-50.91
-56.91
-64.44
-73.96
-85.14
-96.52
-105.69
-109.83
-106.71
-95.56
-77.46
-55.01
-31.56
-10.10
7.49
20.66
30.00
36.66
41.69
45.78
49.07
51.39
52.52
52.45
51.51
50.19
49.03
48.29
47.93
47.69
47.27
46.52
45.47
44.22
42.75
40.90
38.39
34.91
30.24
24.28
17.07
8.83
-0.00
-8.87
-17.17
-24.53
-30.89
-36.66
-42.53
-49.31
-57.71
-68.06
-80.07
-92.68
-103.98
-111.55
-113.02
-106.89
-93.12
-73.29
-50.14
-26.72
-5.53
12.05
25.81
36.30
44.35
50.68
55.74
59.71
62.66
64.63
65.62
65.68
64.91
63.50
61.73
59.92
58.34
57.14
56.25
55.40
54.15
52.10
48.97
44.70
39.38
33.23
26.45
19.17
11.50
3.56
-4.43
-12.24
-19.64
-26.54
-33.01
-39.36
-46.06
-53.69
-62.82
-73.72
-85.97
-98.30
-108.59
-114.30
-113.24
-104.36
-88.23
-66.89
-43.25
-20.24
0.03
16.56
29.32
38.94
46.21
51.81
56.15
59.44
61.68
62.91
63.23
62.80
61.93
60.89
59.90
59.12
58.64
58.54
58.82
59.42
59.99
60.01
58.83
55.92
51.16
44.85
37.61
30.19
23.01
16.14
9.31
2.15
-5.51
-13.48
-21.29
-28.42
-34.60
-40.07
-45.49
-51.88
-60.15
-70.76
-83.29
-96.33
-107.57
-114.33
-114.30
-106.28
-90.74
-69.69
-46.16
-23.20
-3.07
13.21
25.77
35.43
43.03
49.11
53.82
57.16
59.25
60.39
61.04
61.61
62.22
62.71
62.82
62.35
61.41
60.36
59.64
59.44
59.54
59.31
57.92
54.71
49.47
42.61
34.94
27.39
20.67
15.06
10.30
5.76
0.72
-5.39
-12.67
-20.80
-29.04
-36.62
-43.01
-48.21
-52.72
-57.50
-63.57
-71.73
-82.09
-93.89
-105.38
-114.13
-117.57
-113.75
-102.04
-83.45
-60.40
-36.02
-13.24
5.89
20.53
30.86
37.63
41.72
43.84
44.44
43.84
42.31
40.19
37.82
35.56
33.67
32.35
31.62
31.43
31.65
32.06
32.35
32.01
30.49
27.27
22.21
15.75
9.00
3.50
0.82
1.96
7.01
14.98
24.14
32.51
38.44
40.95
39.87
35.59
28.88
20.60
11.56
2.55
-5.74
-12.69
-17.86
-21.13
-22.80
-23.54
-24.38
-26.45
-30.68
-37.46
-46.27
-55.68
-63.52
-67.38
-65.42
-56.93
-42.67
-24.62
-5.42
12.41
27.04
37.60
44.02
46.67
46.00
42.44
36.44
28.70
20.21
12.23
5.96
2.22
1.06
1.82
3.27
4.11
3.36
0.71
-3.54
-8.77
-14.34
-19.91
-25.57
-31.70
-38.81
-47.43
-57.89
-70.28
-84.12
-98.12
-110.05
-117.10
-116.65
-107.21
-89.20
-64.91
-37.95
-12.00
10.21
27.49
40.10
49.08
55.52
60.09
62.95
64.10
63.66
62.08
60.06
58.27
57.15
56.67
56.45
55.98
54.87
53.02
50.65
48.12
45.67
43.26
40.49
36.73
31.40
24.21
15.38
5.61
-4.23
-13.35
-21.38
-28.47
-35.10
-41.99
-49.82
-59.18
-70.41
-83.45
-97.55
-111.02
-121.38
-125.84
-122.26
-109.95
-90.15
-65.63
-39.87
-15.93
4.29
20.31
32.65
42.23
49.89
56.09
61.03
64.82
67.60
69.54
70.75
71.27
71.03
70.01
68.33
66.32
64.39
62.90
61.92
61.14
59.92
57.60
53.74
48.35
41.85
34.90
27.99
21.26
14.49
7.22
-0.89
-9.81
-19.16
-28.27
-36.57
-43.84
-50.31
-56.62
-63.71
-72.49
-83.49
-96.44
-109.96
-121.64
-128.42
-127.58
-117.70
-99.34
-75.00
-48.37
-23.13
-1.93
14.21
25.64
33.52
39.07
43.09
45.97
47.83
48.78
48.98
48.62
47.82
46.58
44.80
42.48
39.75
36.91
34.35
32.34
30.93
29.75
28.10
25.05
19.74
11.82
1.82
-8.73
-17.56
-22.28
-21.17
-13.79
-1.20
14.43
30.49
44.73
55.69
62.81
66.13
65.93
62.55
56.33
47.87
38.08
28.16
19.39
12.66
8.33
6.07
5.16
4.74
4.12
2.78
0.42
-3.27
-8.48
-15.18
-22.79
-30.08
-35.33
-36.74
-33.10
-24.22
-11.02
4.72
20.89
35.52
47.15
54.89
58.32
57.46
52.71
44.99
35.58
26.03
17.77
11.75
8.28
7.02
7.22
7.99
8.63
8.78
8.30
7.16
5.24
2.25
-2.16
-8.18
-15.68
-24.09
-32.62
-40.47
-47.17
-52.78
-57.89
-63.36
-70.15
-78.92
-89.73
-101.76
-113.23
-121.56
-123.97
-118.31
-103.84
-81.72
-54.81
-26.80
-1.17
19.71
35.05
45.27
51.44
54.63
55.53
54.56
52.03
48.47
44.69
41.58
39.93
40.07
41.86
44.66
47.66
50.08
51.36
51.26
49.79
47.06
43.25
38.51
32.95
26.68
19.78
12.29
4.27
-4.16
-12.82
-21.36
-29.40
-36.65
-43.05
-48.91
-54.83
-61.62
-70.12
-80.83
-93.53
-106.93
-118.60
-125.44
-124.55
-114.28
-95.04
-69.29
-40.84
-13.55
9.75
27.85
40.99
50.25
56.78
61.41
64.54
66.36
67.02
66.78
65.96
64.85
63.68
62.60
61.74
61.16
60.87
60.73
60.45
59.60
57.80
54.84
50.72
45.65
39.83
33.42
26.41
18.72
10.36
1.47
-7.66
-16.60
-25.01
-32.70
-39.72
-46.34
-53.02
-60.43
-69.29
-80.13
-92.85
-106.34
-118.37
-125.92
-126.14
-117.34
-99.68
-75.30
-47.68
-20.48
3.43
22.55
36.74
46.80
53.73
58.45
61.55
63.40
64.24
64.28
63.71
62.68
61.30
59.69
58.03
56.57
55.57
55.15
55.21
55.31
54.84
53.15
49.86
44.96
38.85
32.07
25.17
18.39
11.63
4.55
-3.18
-11.72
-20.84
-30.03
-38.66
-46.19
-52.55
-58.14
-63.85
-70.78
-79.84
-91.38
-104.66
-117.85
-128.12
-132.41
-128.33
-115.07
-93.86
-67.62
-40.06
-14.55
6.75
23.25
35.47
44.44
51.08
55.92
59.20
61.12
62.05
62.47
62.84
63.38
64.00
64.40
64.34
63.83
63.13
62.66
62.64
62.89
62.85
61.69
58.76
53.79
47.06
39.26
31.19
23.61
16.90
10.98
5.41
-0.48
-7.26
-15.15
-23.82
-32.55
-40.45
-46.92
-52.00
-56.40
-61.36
-68.13
-77.53
-89.45
-102.61
-114.71
-122.80
-124.10
-116.86
-100.96
-78.10
-51.35
-24.29
-0.03
19.55
34.02
44.08
50.96
55.76
59.14
61.31
62.29
62.24
61.56
60.87
60.66
61.16
62.13
63.13
63.72
63.73
63.32
62.79
62.34
61.79
60.64
58.19
53.90
47.63
39.83
31.33
23.05
15.66
9.33
3.71
-1.87
-8.05
-15.13
-22.94
-30.86
-38.23
-44.55
-49.79
-54.39
-59.10
-64.81
-72.28
-81.91
-93.46
-105.78
-116.76
-123.60
-123.53
-114.81
-97.44
-73.43
-46.16
-19.38
3.89
22.04
34.86
43.09
47.78
49.85
49.91
48.33
45.44
41.66
37.54
33.66
30.53
28.45
27.51
27.59
28.44
29.69
30.88
31.44
30.67
27.89
22.75
15.51
7.18
-0.55
-5.79
-6.92
-3.20
5.00
16.22
28.34
39.07
46.59
49.83
48.58
43.29
34.82
24.20
12.56
1.04
-9.22
-17.22
-22.37
-24.65
-24.78
-24.01
-23.85
-25.68
-30.36
-37.87
-47.12
-56.10
-62.20
-63.01
-57.12
-44.63
-27.22
-7.63
11.29
27.35
39.37
47.16
50.92
50.95
47.47
40.82
31.75
21.62
12.13
4.84
0.67
-0.46
0.46
1.89
2.37
1.01
-2.32
-7.10
-12.49
-17.79
-22.76
-27.65
-33.09
-39.85
-48.62
-59.89
-73.57
-88.81
-103.66
-115.24
-120.32
-116.34
-102.43
-79.96
-52.24
-23.42
2.81
24.24
40.36
51.89
59.91
65.25
68.31
69.28
68.46
66.40
63.85
61.45
59.56
58.08
56.66
54.87
52.49
49.56
46.40
43.37
40.73
38.35
35.72
32.05
26.54
18.75
8.88
-2.26
-13.45
-23.55
-31.88
-38.53
-44.27
-50.34
-58.05
-68.40
-81.63
-96.93
-112.33
-124.83
-131.16
-128.64
-116.21
-94.91
-67.68
-38.44
-10.98
12.13
29.95
42.88
52.15
59.04
64.41
68.59
71.53
73.09
73.24
72.20
70.39
68.27
66.21
64.41
62.90
61.63
60.47
59.27
57.87
56.03
53.55
50.21
45.89
40.55
34.19
26.86
18.69
9.88
0.77
-8.30
-16.96
-25.03
-32.48
-39.44
-46.22
-53.28
-61.25
-70.79
-82.29
-95.46
-108.93
-120.27
-126.43
-124.76
-113.97
-94.76
-69.74
-42.58
-16.81
5.10
22.20
34.81
43.93
50.61
55.53
59.04
61.26
62.33
62.45
61.81
60.60
58.87
56.69
54.19
51.65
49.46
47.93
47.12
46.72
46.04
44.12
40.22
34.11
26.49
18.90
13.40
11.84
15.15
22.86
33.11
43.34
51.06
54.74
54.05
49.70
42.85
34.56
25.51
16.07
6.61
-2.32
-9.98
-15.74
-19.40
-21.35
-22.49
-23.92
-26.59
-31.08
-37.57
-45.79
-54.99
-63.86
-70.50
-72.83
-69.11
-58.64
-42.22
-21.99
-0.92
18.14
33.10
43.02
47.90
48.29
44.98
38.88
31.06
22.78
15.32
9.72
6.44
5.28
5.55
6.40
7.23
7.80
8.16
8.31
7.98
6.59
3.43
-1.92
-9.37
-18.25
-27.56
-36.41
-44.25
-51.11
-57.51
-64.31
-72.44
-82.51
-94.43
-106.96
-117.72
-123.55
-121.50
-109.94
-89.39
-62.51
-33.32
-5.85
17.00
34.07
45.71
53.04
57.14
58.67
57.93
55.22
51.13
46.68
42.99
41.00
41.04
42.86
45.67
48.43
50.23
50.49
49.18
46.67
43.52
40.11
36.48
32.30
27.05
20.36
12.24
3.11
-6.36
-15.55
-24.08
-31.90
-39.15
-46.08
-53.01
-60.36
-68.72
-78.62
-90.15
-102.48
-113.56
-120.51
-120.41
-111.41
-93.60
-69.13
-41.55
-14.68
8.61
26.98
40.56
50.31
57.31
62.31
65.65
67.44
67.84
67.19
66.00
64.72
63.71
63.06
62.61
62.17
61.50
60.44
58.94
57.01
54.66
51.88
48.54
44.46
39.42
33.23
25.85
17.41
8.19
-1.38
-10.90
-20.00
-28.46
-36.22
-43.45
-50.49
-57.91
-66.42
-76.65
-88.75
-101.96
-114.46
-123.53
-126.26
-120.52
-105.81
-83.63
-57.08
-29.91
-5.30
14.84
30.13
41.32
49.52
55.68
60.27
63.44
65.21
65.70
65.16
63.91
62.27
60.47
58.77
57.35
56.45
56.16
56.38
56.73
56.66
55.49
52.73
48.15
41.93
34.58
26.76
19.02
11.65
4.58
-2.52
-10.00
-18.06
-26.58
-35.22
-43.51
-51.12
-58.01
-64.51
-71.30
-79.28
-89.15
-100.95
-113.60
-124.86
-131.72
-131.30
-121.95
-103.91
-79.43
-52.05
-25.45
-2.41
15.85
29.45
39.34
46.58
51.88
55.54
57.66
58.43
58.23
57.58
57.00
56.77
56.91
57.24
57.54
57.68
57.70
57.69
57.67
57.44
56.57
54.49
50.79
45.40
38.69
31.42
24.42
18.20
12.77
7.63
2.05
-4.53
-12.27
-20.75
-29.21
-36.90
-43.41
-48.94
-54.25
-60.42
-68.54
-79.24
-92.39
-106.85
-120.42
-130.26
-133.50
-128.11
-113.65
-91.53
-64.72
-36.85
-11.16
10.34
27.09
39.66
49.02
56.02
61.11
64.45
66.23
66.82
66.76
66.57
66.51
66.56
66.55
66.31
65.90
65.53
65.46
65.74
66.13
65.97
64.48
60.90
54.96
46.98
37.84
28.72
20.55
13.66
7.70
1.81
-4.85
-12.67
-21.37
-30.15
-38.08
-44.58
-49.65
-53.88
-58.26
-63.87
-71.60
-81.81
-94.07
-106.94
-117.99
-124.27
-123.05
-112.81
-93.89
-68.57
-40.48
-13.49
9.41
26.78
38.72
46.31
50.83
53.22
53.95
53.15
51.02
47.98
44.74
41.97
40.18
39.52
39.85
40.88
42.31
43.89
45.27
46.00
45.46
43.03
38.38
31.81
24.28
17.36
12.70
11.55
14.18
19.78
26.69
32.91
36.81
37.45
34.74
29.20
21.56
12.55
2.86
-6.80
-15.68
-22.99
-28.25
-31.43
-33.08
-34.24
-36.08
-39.69
-45.78
-54.45
-64.96
-75.64
-84.04
-87.43
-83.70
-72.07
-53.63
-31.06
-7.77
13.12
29.63
41.10
47.86
50.62
49.96
46.21
39.67
30.93
21.10
11.68
4.20
-0.26
-1.49
-0.22
2.10
3.79
3.53
0.75
-4.29
-10.76
-17.66
-24.29
-30.46
-36.52
-43.19
-51.34
-61.68
-74.54
-89.48
-105.07
-118.79
-127.41
-127.85
-118.18
-98.49
-71.08
-39.86
-9.12
17.69
38.75
53.96
64.35
71.20
75.52
77.80
78.22
77.01
74.67
71.95
69.59
68.02
67.19
66.65
65.76
64.08
61.54
58.50
55.45
52.75
50.30
47.47
43.34
37.00
28.08
16.87
4.35
-8.21
-19.66
-29.40
-37.54
-44.79
-52.21
-60.89
-71.67
-84.85
-99.95
-115.49
-128.94
-137.19
-137.30
-127.57
-108.26
-81.72
-51.72
-22.25
3.61
24.42
40.23
52.10
61.22
68.44
74.12
78.31
81.06
82.51
82.94
82.63
81.79
80.57
79.06
77.43
75.89
74.61
73.62
72.66
71.19
68.61
64.44
58.55
51.27
43.17
34.84
26.61
18.50
10.31
1.82
-6.96
-15.78
-24.22
-31.93
-38.80
-45.09
-51.38
-58.49
-67.25
-78.18
-91.02
-104.37
-115.73
-121.97
-120.28
-109.24
-89.50
-63.63
-35.39
-8.46
14.55
32.54
45.83
55.41
62.35
67.34
70.67
72.46
72.82
72.09
70.69
68.99
67.28
65.62
63.99
62.38
60.93
59.85
59.30
59.23
59.25
58.72
56.86
53.16
47.54
40.43
32.62
24.93
17.89
11.47
5.24
-1.45
-9.03
-17.48
-26.29
-34.70
-42.09
-48.29
-53.72
-59.33
-66.26
-75.43
-87.01
-100.08
-112.52
-121.33
-123.48
-116.90
-101.32
-78.51
-51.78
-24.97
-1.25
17.65
31.51
41.15
47.73
52.10
54.69
55.62
55.03
53.30
51.03
48.85
47.31
46.59
46.63
47.12
47.73
48.18
48.26
47.86
46.88
45.21
42.76
39.46
35.34
30.49
25.00
19.00
12.48
5.49
-1.95
-9.69
-17.41
-24.74
-31.34
-37.10
-42.25
-47.37
-53.33
-60.95
-70.76
-82.45
-94.72
-105.24
-111.15
-109.92
-100.22
-82.59
-59.29
-33.73
-9.31
11.47
27.58
39.20
47.21
52.45
55.46
56.46
55.66
53.46
50.57
47.76
45.66
44.57
44.46
45.17
46.49
48.29
50.42
52.67
54.74
56.24
56.80
56.16
54.26
51.34
47.87
44.52
41.85
40.11
39.15
38.38
37.11
34.77
31.27
26.96
22.45
18.36
15.06
12.64
10.99
9.91
9.25
8.85
8.57
8.26
7.81
7.12
6.18
4.96
3.42
1.49
-0.87
-3.63
-6.63
-9.66
-12.52
-15.16
-17.72
-20.42
-23.49
-27.00
-30.75
-34.40
-37.64
-40.35
-42.77
-45.43
-48.94
-53.68
-59.62
-66.22
-72.64
-78.15
-82.39
-85.52
-88.20
-91.37
-96.00
-102.76
-111.79
-122.30
-132.45
-139.57
-140.73
-133.68
-117.72
-94.05
-65.56
-35.90
-8.45
14.46
31.83
43.77
51.02
54.51
55.17
53.87
51.43
48.56
45.76
43.27
41.07
38.98
36.86
34.74
32.92
31.73
31.42
31.87
32.53
32.55
30.99
27.26
21.30
13.59
5.01
-3.58
-11.53
-18.64
-25.19
-31.88
-39.59
-48.93
-59.86
-71.25
-80.94
-86.14
-84.40
-74.46
-56.90
-34.07
-9.35
13.89
33.21
47.53
57.01
62.50
65.03
65.42
64.16
61.51
57.67
52.91
47.63
42.28
37.35
33.18
30.00
27.76
26.24
25.07
23.86
22.26
20.03
16.99
13.01
8.05
2.13
-4.58
-11.95
-19.89
-28.59
-38.43
-49.68
-62.05
-74.28
-84.17
-89.02
-86.64
-76.11
-58.35
-35.83
-11.81
10.67
29.52
43.88
53.87
60.17
63.53
64.55
63.65
61.21
57.59
53.20
48.45
43.68
39.21
35.32
32.24
30.14
28.99
28.51
28.13
27.11
24.79
20.86
15.37
8.85
1.96
-4.74
-10.99
-17.02
-23.34
-30.71
-39.66
-50.24
-61.65
-72.22
-79.63
-81.56
-76.39
-63.86
-45.30
-23.28
-0.86
19.28
35.47
47.19
54.85
59.27
61.25
61.31
59.81
57.05
53.40
49.32
45.26
41.55
38.35
35.66
33.45
31.69
30.40
29.45
28.56
27.29
25.07
21.54
16.60
10.48
3.65
-3.33
-10.02
-16.15
-21.69
-26.88
-32.24
-38.43
-45.98
-54.84
-64.06
-71.71
-75.46
-73.31
-64.54
-49.99
-31.88
-13.02
4.16
18.16
28.61
35.89
40.64
43.34
44.34
43.77
41.95
39.31
36.40
33.70
31.58
30.11
29.17
28.49
27.81
26.94
25.88
24.74
23.67
22.63
21.31
19.16
15.63
10.47
3.97
-3.08
-9.70
-15.14
-19.20
-22.33
-25.35
-29.19
-34.44
-41.17
-48.82
-56.25
-61.96
-64.43
-62.51
-55.82
-44.92
-31.18
-16.41
-2.39
9.55
18.77
25.17
29.14
31.18
31.80
31.41
30.32
28.77
26.95
25.06
23.17
21.31
19.43
17.49
15.53
13.73
12.35
11.50
11.10
10.78
9.97
8.12
4.82
0.04
-5.91
-12.28
-18.03
-21.92
-22.87
-20.24
-14.10
-5.29
4.84
14.83
23.54
30.34
35.09
37.87
38.72
37.63
34.62
30.02
24.52
19.07
14.57
11.61
10.26
10.19
10.84
11.79
12.71
13.45
13.82
13.65
12.77
11.20
9.16
7.02
5.11
3.52
2.13
0.64
-1.23
-3.57
-6.29
-9.17
-12.06
-14.94
-17.91
-21.10
-24.59
-28.33
-32.15
-35.78
-39.00
-41.70
-43.89
-45.75
-47.56
-49.67
-52.42
-56.11
-60.79
-66.09
-71.11
-74.45
-74.63
-70.52
-61.83
-49.38
-34.86
-20.31
-7.46
2.67
9.94
14.78
17.78
19.43
19.91
19.31
17.74
15.55
13.21
11.29
10.14
9.85
10.23
10.95
11.64
12.06
12.16
11.98
11.61
11.03
10.12
8.62
6.26
2.89
-1.36
-6.16
-11.00
-15.34
-18.85
-21.54
-23.73
-26.00
-28.97
-33.08
-38.42
-44.55
-50.57
-55.20
-57.18
-55.58
-50.17
-41.46
-30.61
-19.07
-8.24
0.89
7.80
12.53
15.41
16.94
17.58
17.56
16.97
15.74
13.86
11.48
8.97
6.83
5.50
5.19
5.82
7.07
8.53
9.83
10.64
10.66
9.58
7.17
3.52
-0.89
-5.09
-7.91
-8.27
-5.65
-0.24
7.07
14.94
22.03
27.30
30.22
30.83
29.53
26.91
23.59
20.03
16.60
13.59
11.20
9.62
8.90
8.91
9.38
9.92
10.21
10.10
9.64
8.97
8.23
7.42
6.46
5.18
3.51
1.45
-0.85
-3.33
-5.88
-8.51
-11.18
-13.83
-16.34
-18.58
-20.59
-22.51
-24.64
-27.25
-30.42
-34.01
-37.67
-41.11
-44.14
-46.89
-49.74
-53.23
-57.81
-63.79
-71.09
-79.18
-87.07
-93.27
-96.21
-94.52
-87.61
-75.94
-60.95
-44.70
-29.24
-16.12
-6.11
0.74
4.82
6.70
6.98
6.13
4.64
2.93
1.37
0.18
-0.56
-0.85
-0.72
-0.17
0.80
2.15
3.69
5.04
5.68
5.10
2.93
-0.95
-6.35
-12.80
-19.77
-26.78
-33.57
-40.17
-46.93
-54.35
-62.86
-72.41
-82.30
-91.02
-96.66
-97.44
-92.31
-81.42
-66.10
-48.43
-30.66
-14.59
-1.30
9.00
16.59
22.03
25.77
28.12
29.18
29.00
27.69
25.50
22.87
20.36
18.48
17.56
17.63
18.38
19.28
19.64
18.90
16.67
12.81
7.48
1.05
-6.06
-13.47
-20.98
-28.74
-37.12
-46.65
-57.71
-70.15
-83.00
-94.43
-102.03
-103.57
-97.69
-84.49
-65.69
-44.05
-22.60
-3.71
11.45
22.93
31.55
38.26
43.70
48.02
51.09
52.74
53.05
52.30
50.95
49.41
48.00
46.91
46.25
45.99
45.93
45.66
44.57
42.07
37.74
31.54
23.82
15.11
5.99
-3.21
-12.46
-22.02
-32.38
-43.99
-57.10
-71.35
-85.58
-97.78
-105.45
-106.29
-99.06
-84.09
-63.32
-39.71
-16.32
4.59
21.99
35.98
47.29
56.69
64.54
70.83
75.33
77.99
79.07
79.12
78.72
78.23
77.67
76.81
75.39
73.40
71.14
69.05
67.36
65.81
63.62
59.79
53.55
44.75
34.03
22.60
11.70
2.14
-6.07
-13.67
-21.84
-31.73
-44.03
-58.60
-74.42
-89.59
-101.61
-107.94
-106.63
-96.94
-79.71
-57.18
-32.40
-8.28
13.17
31.23
46.25
59.11
70.55
80.79
89.51
96.16
100.33
102.06
101.86
100.57
99.07
97.95
97.36
97.06
96.58
95.49
93.58
90.84
87.37
83.28
78.54
73.01
66.51
58.92
50.27
40.78
30.82
20.82
11.19
2.24
-5.98
-13.63
-21.12
-29.01
-37.94
-48.46
-60.78
-74.48
-88.29
-100.07
-107.24
-107.42
-99.35
-83.43
-61.73
-37.41
-13.62
7.36
24.68
38.71
50.46
60.82
70.08
77.94
83.84
87.39
88.65
88.20
86.84
85.35
84.24
83.64
83.39
83.17
82.59
81.34
79.23
76.23
72.37
67.74
62.38
56.27
49.29
41.43
32.79
23.70
14.61
5.98
-1.86
-8.89
-15.36
-21.74
-28.61
-36.57
-46.01
-57.01
-69.07
-80.95
-90.79
-96.42
-95.95
-88.51
-74.62
-56.11
-35.56
-15.46
2.47
17.60
30.17
40.84
50.11
57.96
64.03
67.86
69.31
68.74
66.99
65.00
63.45
62.49
61.79
60.79
59.07
56.57
