1523194504.00
64.000000
-0.00
-0.00
-0.00
-0.00
-0.00
-0.00
-0.00
-0.00
-0.00
-0.00
0.00
0.01
0.01
-0.00
-0.03
-0.05
-0.05
0.00
0.13
0.36
0.66
1.01
1.37
1.72
2.06
2.40
2.79
3.24
3.80
4.42
5.06
5.66
6.20
6.68
7.15
7.68
8.31
9.14
10.09
11.04
11.88
12.56
13.14
13.76
14.65
15.96
17.91
20.32
22.90
25.38
27.58
29.57
31.68
34.32
37.81
42.54
48.15
54.10
59.83
64.97
69.58
74.14
79.34
85.71
93.76
103.00
112.62
121.73
129.77
136.75
143.30
150.75
157.77
166.64
177.95
191.79
206.97
220.57
228.25
225.36
208.53
176.87
132.76
80.05
23.07
-34.94
-92.44
-149.16
-205.23
-260.37
-313.74
-363.87
-409.83
-450.89
-486.47
-515.69
-537.16
-549.12
-549.82
-538.19
-513.98
-478.39
-433.54
-382.05
-326.56
-269.31
-212.04
-155.99
-102.21
-51.56
-5.01
36.56
72.49
102.51
126.77
145.76
160.20
170.80
178.17
182.73
184.74
184.46
182.14
178.14
172.86
166.72
160.06
153.12
146.06
138.95
131.82
124.72
117.72
110.87
104.27
97.95
91.95
86.29
80.98
76.03
71.45
67.24
63.41
59.97
56.91
54.25
51.97
50.07
48.55
47.38
46.50
45.87
45.36
44.84
44.15
43.11
41.53
39.28
36.25
32.38
27.70
22.28
16.27
9.90
3.41
-2.91
-8.81
-14.06
-18.46
-21.91
-24.35
-25.79
-26.29
-25.99
-25.00
-23.49
-21.61
-19.47
-17.17
-14.79
-12.36
-9.92
-7.49
-5.08
-2.67
-0.24
2.22
4.75
7.37
10.12
12.96
15.89
18.90
21.99
25.17
28.45
31.88
35.47
39.31
43.29
47.37
51.53
55.77
60.10
64.57
69.20
74.09
79.33
84.77
90.36
96.03
101.75
107.51
113.29
119.10
124.96
130.90
136.64
141.96
146.63
150.42
153.02
154.08
153.09
149.34
144.17
138.06
131.34
124.26
117.00
109.72
102.58
95.70
89.23
83.33
77.85
72.66
67.73
62.99
58.41
53.99
49.74
45.72
41.99
38.43
34.97
31.57
28.23
24.93
21.69
18.53
15.50
12.69
10.06
7.63
5.40
3.40
1.59
-0.04
-1.53
-2.88
-4.08
-5.15
-6.12
-7.02
-7.89
-8.80
-9.84
-11.04
-12.40
-13.82
-15.22
-16.48
-17.57
-18.53
-19.52
-20.74
-22.38
-24.51
-27.07
-29.85
-32.65
-35.36
-38.06
-41.02
-44.64
-49.18
-54.71
-61.01
-67.62
-74.12
-80.27
-86.25
-92.55
-99.83
-108.57
-118.84
-130.27
-142.24
-154.18
-165.87
-177.52
-189.67
-202.93
-217.81
-234.76
-254.17
-276.18
-300.31
-324.98
-347.43
-364.25
-372.35
-370.17
-358.23
-338.96
-315.71
-291.66
-269.00
-248.94
-232.10
-218.99
-210.02
-204.99
-202.48
-199.61
-192.61
-178.10
-154.46
-122.60
-85.80
-48.49
-14.56
13.82
36.59
55.13
71.03
85.12
97.18
106.34
111.92
114.03
113.70
112.50
111.90
112.81
115.45
119.48
124.38
129.62
134.73
139.26
142.70
144.36
143.55
139.71
132.67
122.82
111.22
99.39
88.98
81.35
77.13
76.12
77.27
79.06
80.01
79.08
76.03
71.34
66.06
61.34
58.08
56.57
56.43
56.76
56.39
54.25
49.63
42.39
33.01
22.45
11.84
2.08
-6.59
-14.80
-23.96
-35.83
-51.97
-73.10
-98.69
-126.78
-154.24
-177.40
-193.06
-199.59
-197.58
-189.80
-180.17
-172.18
-167.61
-165.86
-164.57
-160.84
-152.62
-139.41
-122.24
-102.88
-83.09
-64.06
-46.48
-30.72
-17.16
-6.12
2.27
8.33
12.88
17.10
22.06
28.41
35.99
43.98
51.26
56.85
60.31
61.82
62.02
61.64
61.23
61.01
60.90
60.57
59.70
58.07
55.65
52.63
49.34
46.13
43.23
40.64
38.16
35.51
32.46
28.95
25.15
21.34
17.81
14.68
11.87
9.14
6.07
2.33
-2.27
-7.66
-13.51
-19.35
-24.72
-29.37
-33.35
-37.02
-40.95
-45.78
-52.02
-59.83
-68.80
-77.84
-85.29
-89.29
-88.34
-81.67
-69.63
-53.53
-35.21
-16.64
0.68
15.76
28.21
37.97
45.21
50.15
53.15
54.60
54.95
54.60
53.87
53.00
52.17
51.59
51.44
51.85
52.85
54.31
56.03
57.74
59.17
60.06
60.19
59.36
57.54
54.91
51.79
48.62
45.75
43.29
41.08
38.77
36.05
32.81
29.25
25.80
22.89
20.78
19.42
18.44
17.36
15.75
13.43
10.54
7.38
4.31
1.52
-0.98
-3.37
-5.91
-8.82
-12.24
-16.19
-20.52
-25.01
-29.42
-33.56
-37.41
-41.12
-45.04
-49.61
-55.27
-62.22
-70.21
-78.39
-85.34
-89.32
-88.70
-82.56
-71.05
-55.45
-37.76
-20.10
-4.14
9.21
19.74
27.70
33.47
37.37
39.71
40.77
40.92
40.55
40.05
39.68
39.61
39.90
40.49
41.27
42.08
42.76
43.24
43.52
43.61
43.45
42.88
41.65
39.58
36.61
32.91
28.84
24.80
21.11
17.89
15.06
12.35
9.44
6.06
2.14
-2.24
-6.81
-11.25
-15.33
-18.99
-22.43
-26.06
-30.39
-35.86
-42.62
-50.35
-58.18
-64.81
-68.78
-68.81
-64.21
-55.11
-42.40
-27.50
-11.94
2.87
15.93
26.62
34.66
40.04
42.97
43.83
43.19
41.68
39.94
38.46
37.50
37.12
37.21
37.61
38.15
38.70
39.16
39.49
39.60
39.41
38.74
37.43
35.32
32.37
28.69
24.51
20.18
16.06
12.34
9.01
5.91
2.74
-0.71
-4.47
-8.39
-12.15
-15.45
-18.13
-20.31
-22.34
-24.80
-28.25
-33.11
-39.47
-46.88
-54.39
-60.60
-63.99
-63.30
-57.93
-48.13
-34.98
-20.07
-5.10
8.52
19.90
28.63
34.70
38.32
39.78
39.48
37.89
35.59
33.19
31.27
30.17
30.03
30.62
31.59
32.59
33.34
33.76
33.88
33.74
33.32
32.48
31.05
28.91
26.12
22.83
19.34
15.88
12.56
9.36
6.12
2.63
-1.17
-5.22
-9.29
-13.07
-16.30
-18.97
-21.30
-23.71
-26.77
-30.96
-36.53
-43.38
-50.91
-58.05
-63.40
-65.55
-63.40
-56.59
-45.62
-31.70
-16.50
-1.60
11.73
22.78
31.24
37.13
40.60
41.91
41.45
39.76
37.50
35.33
33.79
33.18
33.49
34.45
35.67
36.78
37.56
37.91
37.82
37.27
36.19
34.42
31.90
28.68
24.98
21.15
17.53
14.28
11.41
8.74
6.01
2.98
-0.49
-4.40
-8.54
-12.60
-16.27
-19.35
-21.91
-24.28
-26.90
-30.28
-34.78
-40.50
-47.21
-54.21
-60.38
-64.33
-64.70
-60.63
-52.07
-39.93
-25.77
-11.37
1.81
12.88
21.55
27.91
32.14
34.39
34.81
33.68
31.50
28.97
26.78
25.47
25.23
25.89
27.14
28.62
30.13
31.61
32.98
34.08
34.59
34.12
32.48
29.73
26.22
22.45
18.77
15.25
11.65
7.64
2.99
-2.26
-7.76
-13.03
-17.64
-21.37
-24.22
-26.47
-28.57
-31.08
-34.55
-39.38
-45.60
-52.61
-59.24
-63.92
-65.09
-61.76
-53.83
-42.18
-28.33
-13.99
-0.63
10.81
19.94
26.73
31.31
33.91
34.77
34.28
32.88
31.07
29.33
28.03
27.37
27.36
27.88
28.70
29.63
30.48
31.14
31.53
31.53
30.93
29.50
27.13
23.89
20.09
16.18
12.54
9.32
6.38
3.33
-0.15
-4.20
-8.66
-13.19
-17.43
-21.20
-24.59
-27.99
-31.92
-36.87
-43.05
-50.21
-57.50
-63.54
-66.74
-65.72
-59.81
-49.34
-35.59
-20.37
-5.56
7.45
17.91
25.65
30.84
33.76
34.71
34.05
32.27
30.03
27.99
26.71
26.43
27.09
28.37
29.90
31.33
32.46
33.13
33.24
32.68
31.42
29.47
26.90
23.82
20.28
16.33
11.99
7.35
2.51
-2.34
-7.01
-11.37
-15.34
-18.90
-22.13
-25.26
-28.67
-32.80
-38.02
-44.35
-51.24
-57.56
-61.82
-62.59
-58.98
-50.93
-39.29
-25.56
-11.40
1.73
12.90
21.68
28.08
32.23
34.33
34.63
33.50
31.49
29.30
27.62
26.90
27.28
28.50
30.12
31.67
32.82
33.44
33.46
32.87
31.61
29.61
26.90
23.59
19.84
15.84
11.71
7.50
3.23
-1.04
-5.24
-9.23
-12.96
-16.41
-19.68
-22.96
-26.52
-30.66
-35.64
-41.51
-47.97
-54.19
-58.91
-60.70
-58.38
-51.46
-40.39
-26.48
-11.51
2.73
14.94
24.48
31.29
35.62
37.79
38.12
36.90
34.59
31.81
29.30
27.70
27.36
28.24
29.94
31.85
33.40
34.21
34.18
33.43
32.19
30.65
28.80
26.52
23.58
19.83
15.33
10.30
5.09
0.06
-4.50
-8.49
-11.93
-15.04
-18.14
-21.69
-26.12
-31.75
-38.50
-45.81
-52.56
-57.28
-58.59
-55.53
-47.98
-36.68
-23.05
-8.74
4.71
16.23
25.22
31.47
35.06
36.21
35.33
33.01
29.99
27.04
24.84
23.74
23.72
24.47
25.48
26.30
26.65
26.45
25.76
24.70
23.34
21.62
19.44
16.67
13.25
9.24
4.76
0.08
-4.57
-8.96
-12.99
-16.68
-20.32
-24.28
-29.02
-34.87
-41.75
-49.04
-55.51
-59.61
-59.88
-55.50
-46.58
-34.15
-19.85
-5.45
7.57
18.24
26.07
30.96
33.03
32.61
30.22
26.62
22.69
19.24
16.85
15.78
15.84
16.63
17.64
18.47
18.90
18.89
18.40
17.29
15.33
12.28
8.08
2.93
-2.70
-8.26
-13.35
-17.86
-22.04
-26.34
-31.26
-37.13
-43.96
-51.33
-58.26
-63.45
-65.40
-62.95
-55.63
-43.93
-29.19
-13.28
1.97
15.18
25.58
32.97
37.47
39.35
38.95
36.76
33.47
29.90
26.83
24.79
23.90
23.92
24.41
25.00
25.47
25.74
25.66
25.00
23.35
20.35
15.90
10.21
3.78
-2.79
-8.99
-14.60
-19.68
-24.55
-29.73
-35.74
-42.99
-51.45
-60.43
-68.56
-74.04
-75.09
-70.62
-60.58
-46.09
-29.06
-11.63
4.47
18.19
29.19
37.55
43.43
46.93
48.16
47.38
45.17
42.40
39.98
38.54
38.30
38.97
39.95
40.63
40.61
39.82
38.47
36.81
34.95
32.74
29.81
25.77
20.39
13.85
6.64
-0.59
-7.23
-13.00
-17.98
-22.56
-27.27
-32.60
-38.94
-46.49
-55.12
-64.26
-72.82
-79.21
-81.72
-79.02
-70.63
-57.17
-40.20
-21.77
-3.81
12.32
25.92
36.85
45.17
51.01
54.47
55.78
55.43
54.09
52.55
51.46
51.14
51.55
52.41
53.46
54.48
55.43
56.28
56.98
57.35
57.16
56.22
54.46
51.94
48.87
45.53
42.19
39.11
36.43
34.18
32.26
30.46
28.55
26.38
23.97
21.47
19.07
16.94
15.05
13.24
11.21
8.67
5.43
1.55
-2.70
-6.97
-10.89
-14.32
-17.38
-20.40
-23.78
-27.79
-32.50
-37.72
-43.13
-48.40
-53.31
-57.87
-62.31
-67.09
-72.76
-79.80
-88.36
-97.85
-106.92
-113.52
-115.41
-110.88
-99.41
-81.92
-60.56
-38.00
-16.70
1.70
16.59
28.08
36.60
42.56
46.26
47.96
48.13
47.44
46.70
46.61
47.52
49.31
51.55
53.73
55.48
56.77
57.76
58.64
59.38
59.71
59.19
57.42
54.31
50.15
45.52
41.03
37.13
33.90
31.06
28.15
24.80
20.87
16.51
12.10
8.04
4.53
1.52
-1.37
-4.56
-8.41
-13.04
-18.24
-23.64
-28.84
-33.57
-37.77
-41.63
-45.54
-50.00
-55.52
-62.40
-70.44
-78.77
-85.79
-89.53
-88.20
-80.89
-67.93
-50.86
-31.97
-13.63
2.42
15.31
25.02
31.99
36.75
39.67
40.96
40.80
39.55
37.72
35.96
34.81
34.55
35.14
36.28
37.54
38.56
39.06
38.91
38.03
36.44
34.19
31.37
28.06
24.26
19.96
15.13
9.79
4.08
-1.76
-7.41
-12.63
-17.27
-21.47
-25.50
-29.79
-34.75
-40.61
-47.35
-54.53
-61.34
-66.58
-68.94
-67.32
-61.09
-50.48
-36.57
-21.03
-5.72
7.83
18.72
26.70
31.98
34.88
35.69
34.67
32.19
28.84
25.41
22.71
21.18
20.86
21.32
21.94
22.16
21.72
20.68
19.28
17.77
16.22
14.43
12.05
8.69
4.17
-1.37
-7.47
-13.45
-18.72
-22.99
-26.37
-29.39
-32.73
-37.03
-42.65
-49.49
-56.97
-63.98
-69.09
-70.84
-68.16
-60.68
-49.02
-34.52
-18.96
-3.98
9.25
20.12
28.43
34.15
37.32
38.06
36.69
33.82
30.33
27.11
24.86
23.88
24.06
24.98
26.09
26.83
26.85
26.03
24.47
22.39
19.99
17.32
14.21
10.35
5.47
-0.45
-7.11
-13.90
-20.20
-25.59
-30.00
-33.76
-37.40
-41.51
-46.60
-52.97
-60.58
-68.92
-76.91
-82.97
-85.38
-82.74
-74.52
-61.33
-44.77
-26.95
-9.80
5.37
18.05
28.28
36.34
42.43
46.59
48.85
49.41
48.76
47.59
46.58
46.15
46.37
47.00
47.73
48.34
48.81
49.25
49.73
50.14
50.22
49.61
48.11
45.80
42.98
40.12
37.61
35.57
33.91
32.33
30.57
28.53
26.30
24.12
22.17
20.50
18.94
17.23
15.13
12.53
9.53
6.37
3.24
0.25
-2.64
-5.57
-8.65
-11.86
-15.08
-18.06
-20.67
-22.95
-25.17
-27.77
-31.13
-35.39
-40.42
-45.84
-51.18
-56.11
-60.52
-64.60
-68.71
-73.38
-79.17
-86.54
-95.60
-105.78
-115.71
-123.29
-126.16
-122.52
-111.67
-94.46
-73.01
-50.03
-28.05
-8.71
7.33
20.24
30.47
38.42
44.28
48.18
50.42
51.57
52.33
53.35
54.92
56.93
59.01
60.72
61.83
62.43
62.76
63.06
63.39
63.57
63.22
62.01
59.78
56.67
53.05
49.36
45.95
42.95
40.24
37.60
34.82
31.90
28.96
26.21
23.82
21.78
19.95
18.11
15.97
13.37
10.24
6.64
2.74
-1.28
-5.24
-9.06
-12.81
-16.71
-21.01
-25.88
-31.33
-37.07
-42.71
-47.82
-52.19
-55.94
-59.54
-63.68
-69.07
-76.16
-84.83
-94.24
-102.84
-108.60
-109.54
-104.33
-92.76
-75.90
-55.80
-34.89
-15.30
1.61
15.36
26.11
34.29
40.33
44.54
47.15
48.47
48.91
48.95
49.02
49.39
50.10
51.06
52.11
53.09
53.90
54.46
54.70
54.55
53.90
52.67
50.76
48.09
44.60
40.34
35.44
30.12
24.66
19.37
14.51
10.20
6.45
3.07
-0.21
-3.77
-7.89
-12.70
-18.10
-23.76
-29.30
-34.41
-38.97
-43.12
-47.23
-51.81
-57.40
-64.40
-72.76
-81.86
-90.33
-96.25
-97.60
-92.96
-82.01
-65.77
-46.32
-26.19
-7.60
8.08
20.40
29.66
36.41
41.19
44.35
46.13
46.77
46.66
46.22
45.82
45.61
45.54
45.44
45.24
44.98
44.78
44.69
44.57
44.01
42.52
39.76
35.67
30.59
25.07
19.68
14.78
10.38
6.19
1.78
-3.15
-8.66
-14.53
-20.34
-25.68
-30.35
-34.45
-38.44
-43.00
-48.79
-56.21
-65.13
-74.74
-83.50
-89.50
-90.86
-86.40
-76.00
-60.78
-42.77
-24.26
-7.16
7.41
19.15
28.28
35.16
40.06
43.12
44.45
44.36
43.32
41.94
40.74
40.11
40.18
40.95
42.28
43.86
45.31
46.21
46.15
44.90
42.46
39.04
34.96
30.44
25.57
20.29
14.56
8.45
2.19
-3.90
-9.63
-14.92
-19.87
-24.67
-29.47
-34.44
-39.79
-45.79
-52.65
-60.26
-67.91
-74.21
-77.38
-75.79
-68.65
-56.33
-40.34
-22.77
-5.60
9.77
22.76
33.29
41.51
47.41
50.87
51.88
50.78
48.27
45.32
42.79
41.19
40.59
40.65
40.89
40.91
40.45
39.42
37.85
35.77
33.18
30.03
26.28
21.88
16.85
11.26
5.25
-0.97
-7.16
-13.12
-18.66
-23.75
-28.47
-33.07
-37.89
-43.40
-49.99
-57.83
-66.60
-75.34
-82.50
-86.24
-84.96
-77.89
-65.37
-48.82
-30.34
-12.01
4.61
18.71
30.10
38.86
45.08
48.82
50.15
49.39
47.18
44.36
41.72
39.72
38.41
37.44
36.38
34.95
33.18
31.38
29.90
28.88
28.14
27.11
25.08
21.49
16.15
9.41
2.07
-4.97
-11.02
-15.84
-19.77
-23.55
-28.04
-33.92
-41.44
-50.30
-59.58
-67.87
-73.47
-74.77
-70.71
-61.13
-46.92
-29.84
-11.97
4.77
19.11
30.44
38.77
44.34
47.52
48.66
48.13
46.34
43.74
40.79
37.86
35.18
32.93
31.18
29.93
29.10
28.51
27.92
27.02
25.46
22.92
19.17
14.16
8.14
1.58
-4.91
-10.84
-16.01
-20.66
-25.41
-31.01
-38.04
-46.61
-56.12
-65.28
-72.37
-75.58
-73.59
-65.94
-53.28
-37.19
-19.79
-3.07
11.46
23.07
31.63
37.33
40.43
41.16
39.80
36.88
33.19
29.66
27.07
25.82
25.73
26.31
26.93
27.14
26.82
26.09
25.06
23.67
21.58
18.32
13.51
7.18
-0.24
-8.00
-15.32
-21.71
-27.12
-31.96
-36.90
-42.63
-49.60
-57.87
-66.88
-75.43
-81.83
-84.24
-81.24
-72.35
-58.19
-40.38
-21.07
-2.26
14.59
28.71
39.95
48.41
54.25
57.65
58.84
58.26
56.54
54.47
52.71
51.68
51.48
51.91
52.60
53.26
53.78
54.21
54.67
55.15
55.51
55.41
54.48
52.49
49.45
45.61
41.42
37.28
33.53
30.27
27.46
24.92
22.50
20.11
17.75
15.48
13.37
11.43
9.53
7.45
4.92
1.80
-1.92
-6.00
-10.10
-13.89
-17.18
-20.03
-22.73
-25.71
-29.37
-33.95
-39.39
-45.36
-51.36
-56.89
-61.69
-65.82
-69.70
-73.97
-79.34
-86.28
-94.87
-104.52
-113.84
-120.83
-123.17
-118.99
-107.47
-89.28
-66.46
-41.87
-18.31
2.18
18.72
31.36
40.65
47.21
51.49
53.81
54.60
54.42
53.97
53.87
54.47
55.81
57.65
59.67
61.63
63.44
65.03
66.37
67.31
67.68
67.32
66.15
64.19
61.49
58.21
54.50
50.54
46.48
42.48
38.63
34.91
31.24
27.52
23.65
19.59
15.35
10.99
6.58
2.19
-2.11
-6.21
-9.99
-13.34
-16.28
-18.97
-21.74
-24.97
-28.89
-33.52
-38.58
-43.66
-48.38
-52.63
-56.58
-60.73
-65.69
-71.92
-79.41
-87.53
-94.95
-99.91
-100.66
-96.00
-85.63
-70.35
-51.80
-32.04
-13.04
3.71
17.37
27.72
34.92
39.37
41.52
41.84
40.83
39.01
36.91
34.96
33.47
32.56
32.19
32.25
32.52
32.86
33.05
32.94
32.34
31.10
29.12
26.41
23.04
19.14
14.85
10.25
5.40
0.33
-4.96
-10.33
-15.65
-20.76
-25.60
-30.22
-34.89
-39.99
-45.94
-52.91
-60.65
-68.39
-74.78
-78.26
-77.37
-71.36
-60.44
-45.77
-29.21
-12.71
2.15
14.43
23.87
30.67
35.19
37.79
38.73
38.30
36.78
34.55
32.03
29.62
27.62
26.17
25.22
24.60
24.04
23.29
22.23
20.83
19.16
17.26
15.03
12.23
8.57
3.88
-1.76
-7.98
-14.23
-19.98
-24.94
-29.13
-32.87
-36.68
-41.13
-46.66
-53.47
-61.34
-69.50
-76.66
-81.17
-81.49
-76.64
-66.56
-52.22
-35.31
-17.77
-1.26
13.14
25.00
34.30
41.24
46.06
48.92
50.08
49.85
48.72
47.26
46.00
45.32
45.37
46.04
47.08
48.22
49.24
50.07
50.68
51.04
51.02
50.41
48.96
46.54
43.22
39.31
35.27
31.57
28.50
26.09
24.11
22.18
19.95
17.26
14.19
11.00
8.02
5.48
3.45
1.79
0.16
-1.75
-4.20
-7.23
-10.71
-14.36
-17.92
-21.18
-24.17
-27.07
-30.18
-33.81
-38.10
-43.00
-48.29
-53.60
-58.57
-63.04
-67.06
-70.95
-75.27
-80.62
-87.42
-95.56
-104.21
-111.81
-116.35
-115.94
-109.47
-96.97
-79.64
-59.51
-38.80
-19.37
-2.39
11.64
22.68
30.89
36.50
39.77
41.12
41.14
40.55
40.04
40.04
40.72
41.95
43.45
45.00
46.50
47.94
49.38
50.77
51.94
52.64
52.62
51.71
49.90
47.30
44.13
40.66
37.14
33.71
30.37
27.00
23.40
19.42
15.02
10.35
5.70
1.37
-2.46
-5.82
-8.97
-12.33
-16.24
-20.88
-26.17
-31.82
-37.46
-42.77
-47.65
-52.23
-56.89
-62.13
-68.46
-76.18
-85.09
-94.31
-102.29
-107.03
-106.71
-100.27
-87.84
-70.75
-51.11
-31.17
-12.69
3.33
16.58
27.10
35.08
40.68
44.08
45.56
45.59
44.78
43.74
42.98
42.83
43.39
44.58
46.15
47.79
49.20
50.15
50.53
50.37
49.74
48.69
47.17
45.07
42.24
38.59
34.24
29.45
24.55
19.83
15.45
11.34
7.33
3.15
-1.41
-6.41
-11.79
-17.34
-22.79
-27.92
-32.60
-36.89
-41.03
-45.40
-50.46
-56.72
-64.55
-73.96
-84.40
-94.62
-102.73
-106.72
-104.94
-96.76
-82.76
-64.62
-44.52
-24.59
-6.43
9.10
21.75
31.57
38.74
43.47
46.02
46.77
46.33
45.36
44.49
44.10
44.27
44.81
45.47
46.09
46.77
47.71
49.05
50.65
52.06
52.63
51.74
49.06
44.71
39.16
33.13
27.23
21.83
16.97
12.37
7.62
2.32
-3.67
-10.24
-17.02
-23.54
-29.44
-34.63
-39.32
-44.05
-49.48
-56.25
-64.68
-74.53
-84.84
-93.93
-99.71
-100.25
-94.41
-82.22
-64.97
-44.80
-24.13
-4.90
11.66
25.09
35.46
43.00
47.99
50.68
51.44
50.85
49.61
48.44
47.84
47.96
48.66
49.62
50.58
51.40
52.15
52.89
53.57
53.94
53.60
52.12
49.22
44.86
39.32
33.09
26.76
20.79
15.40
10.47
5.61
0.41
-5.44
-11.90
-18.58
-24.96
-30.60
-35.40
-39.68
-44.10
-49.45
-56.39
-65.24
-75.64
-86.59
-96.32
-102.72
-103.81
-98.38
-86.46
-69.33
-49.16
-28.35
-8.87
8.10
22.16
33.40
42.04
48.26
52.18
54.08
54.42
53.85
53.05
52.50
52.36
52.53
52.82
53.14
53.48
53.96
54.54
55.03
55.00
53.97
51.62
47.92
43.13
37.72
32.09
26.47
20.80
14.87
8.48
1.61
-5.54
-12.59
-19.19
-25.16
-30.58
-35.79
-41.28
-47.55
-55.02
-63.81
-73.56
-83.19
-91.02
-95.06
-93.57
-85.72
-71.92
-53.76
-33.48
-13.38
4.80
20.06
32.10
41.00
47.02
50.50
51.78
51.35
49.74
47.58
45.42
43.77
42.94
43.02
43.89
45.23
46.65
47.81
48.41
48.26
47.28
45.39
42.58
38.90
34.47
29.46
24.04
18.34
12.37
6.10
-0.43
-7.08
-13.59
-19.75
-25.45
-30.79
-36.11
-41.93
-48.83
-57.15
-66.74
-76.73
-85.49
-90.90
-90.95
-84.47
-71.59
-53.83
-33.61
-13.45
4.69
19.77
31.58
40.32
46.28
49.64
50.62
49.65
47.45
44.89
42.80
41.71
41.72
42.54
43.68
44.62
44.97
44.57
43.45
41.76
39.67
37.26
34.48
31.17
27.13
22.25
16.59
10.34
3.82
-2.65
-8.81
-14.52
-19.78
-24.72
-29.57
-34.68
-40.44
-47.27
-55.32
-64.23
-72.90
-79.53
-82.08
-78.86
-69.28
-54.08
-35.21
-15.16
3.73
19.89
32.55
41.64
47.40
50.21
50.56
49.06
46.46
43.60
41.18
39.67
39.17
39.59
40.68
42.09
43.50
44.54
44.93
44.46
43.03
40.72
37.62
33.88
29.57
24.77
19.50
13.84
7.89
1.80
-4.26
-10.07
-15.43
-20.24
-24.55
-28.62
-32.91
-37.91
-44.13
-51.85
-60.91
-70.61
-79.59
-85.94
-87.71
-83.43
-72.76
-56.67
-37.30
-17.21
1.32
16.94
29.22
38.39
44.81
48.68
50.01
48.93
45.90
41.84
37.89
35.08
33.98
34.53
36.16
38.01
39.31
39.63
38.94
37.48
35.64
33.63
31.44
28.81
25.36
20.84
15.22
8.80
2.05
-4.50
-10.46
-15.68
-20.28
-24.57
-29.01
-34.07
-40.17
-47.50
-55.82
-64.28
-71.42
-75.40
-74.51
-67.80
-55.49
-38.99
-20.49
-2.31
13.76
26.75
36.42
42.91
46.46
47.25
45.53
41.85
37.15
32.61
29.32
27.87
28.20
29.66
31.30
32.34
32.40
31.53
30.09
28.47
26.86
25.16
23.02
20.03
15.90
10.63
4.56
-1.70
-7.53
-12.51
-16.57
-20.06
-23.57
-27.78
-33.28
-40.42
-49.00
-58.26
-66.81
-72.74
-74.19
-69.87
-59.57
-44.38
-26.32
-7.74
9.31
23.50
34.25
41.50
45.44
46.34
44.62
40.92
36.19
31.52
27.88
25.86
25.45
26.15
27.19
27.89
27.91
27.34
26.51
25.68
24.82
23.56
21.32
17.67
12.52
6.23
-0.52
-7.06
-12.87
-17.83
-22.10
-26.11
-30.41
-35.57
-42.00
-49.79
-58.41
-66.64
-72.70
-74.65
-71.03
-61.41
-46.64
-28.63
-9.79
7.61
22.00
32.59
39.28
42.37
42.30
39.63
35.04
29.37
23.59
18.58
14.97
13.00
12.44
12.84
13.65
14.44
14.94
14.99
14.43
13.04
10.59
7.01
2.39
-2.95
-8.66
-14.40
-20.02
-25.54
-31.19
-37.34
-44.37
-52.48
-61.30
-69.74
-76.01
-78.05
-74.26
-64.14
-48.62
-29.79
-10.25
7.66
22.34
33.13
40.01
43.29
43.42
40.88
36.29
30.46
24.33
18.86
14.82
12.60
12.13
12.93
14.17
15.02
14.76
13.03
9.87
5.61
0.76
-4.25
-9.16
-13.98
-18.90
-24.20
-30.17
-37.10
-45.20
-54.43
-64.29
-73.57
-80.42
-82.71
-78.78
-68.07
-51.56
-31.55
-10.89
7.84
22.95
33.92
40.99
44.75
45.66
44.09
40.38
35.10
29.16
23.61
19.40
17.04
16.56
17.46
18.97
20.24
20.55
19.47
16.89
13.01
8.22
2.95
-2.48
-7.96
-13.61
-19.67
-26.44
-34.17
-43.05
-52.98
-63.34
-72.81
-79.43
-81.08
-76.19
-64.43
-47.00
-26.26
-5.01
14.38
30.44
42.68
51.19
56.32
58.39
57.81
55.12
51.14
46.76
42.77
39.64
37.48
36.15
35.38
34.91
34.53
33.99
32.96
31.01
27.76
22.97
16.69
9.31
1.47
-6.18
-13.12
-19.20
-24.65
-30.14
-36.51
-44.58
-54.65
-66.12
-77.30
-85.69
-88.60
-84.15
-71.95
-53.38
-31.13
-8.28
12.58
29.93
43.30
52.79
58.66
61.06
60.15
56.48
51.09
45.37
40.67
37.84
36.93
37.36
38.23
38.79
38.73
38.12
37.24
36.20
34.75
32.30
28.23
22.16
14.28
5.31
-3.73
-11.90
-18.69
-24.23
-29.16
-34.45
-41.01
-49.45
-59.75
-71.14
-82.03
-90.24
-93.46
-89.97
-79.24
-62.20
-40.98
-18.26
3.48
22.55
38.12
49.95
58.03
62.35
63.02
60.51
55.78
50.23
45.34
42.14
40.95
41.30
42.28
42.97
42.80
41.77
40.15
38.30
36.22
33.60
29.84
24.47
17.35
8.84
-0.36
-9.42
-17.66
-24.78
-30.86
-36.40
-42.16
-49.00
-57.59
-67.99
-79.36
-89.82
-96.83
-97.93
-91.56
-77.73
-58.06
-35.21
-12.04
9.20
27.21
41.55
52.16
59.06
62.25
61.90
58.57
53.36
47.73
43.01
40.07
39.08
39.52
40.54
41.29
41.25
40.38
38.91
37.17
35.25
32.87
29.47
24.45
17.55
9.00
-0.46
-9.84
-18.31
-25.43
-31.35
-36.69
-42.21
-48.69
-56.67
-66.31
-77.17
-88.08
-97.09
-101.88
-100.32
-91.24
-74.96
-53.26
-28.92
-4.87
16.67
34.51
48.38
58.58
65.45
69.19
69.95
68.09
64.32
59.68
55.27
51.93
50.01
49.37
49.55
50.01
50.29
50.06
49.12
47.32
44.54
40.78
36.17
30.92
25.31
19.44
13.31
6.72
-0.48
-8.27
-16.38
-24.35
-31.64
-37.91
-43.20
-47.92
-52.88
-58.92
-66.75
-76.57
-87.75
-98.68
-106.96
-109.99
-105.72
-93.46
-74.20
-50.38
-25.09
-1.18
19.46
36.13
48.94
58.42
65.03
69.06
70.76
70.54
69.01
67.01
65.25
64.23
64.01
64.38
64.96
65.46
65.78
65.95
66.06
66.04
65.67
64.59
62.49
59.31
55.25
50.77
46.36
42.41
39.01
36.04
33.23
30.35
27.36
24.35
21.49
18.91
16.59
14.40
12.19
9.82
7.27
4.62
1.98
-0.54
-2.91
-5.20
-7.57
-10.27
-13.47
-17.19
-21.29
-25.42
-29.26
-32.63
-35.63
-38.62
-42.02
-46.17
-51.09
-56.55
-62.08
-67.19
-71.60
-75.33
-78.81
-82.78
-88.14
-95.53
-104.99
-115.58
-125.29
-131.42
-131.26
-123.05
-106.61
-83.50
-56.60
-29.27
-4.32
16.45
32.43
43.84
51.29
55.47
56.98
56.48
54.68
52.42
50.47
49.37
49.29
50.08
51.40
52.84
54.17
55.35
56.43
57.51
58.52
59.22
59.19
58.04
55.54
51.79
47.18
42.29
37.69
33.74
30.52
27.81
25.28
22.60
19.65
16.50
13.41
10.67
8.44
6.70
5.27
3.84
2.12
-0.05
-2.73
-5.85
-9.30
-12.94
-16.64
-20.34
-24.02
-27.80
-31.87
-36.44
-41.57
-47.11
-52.72
-57.95
-62.45
-66.19
-69.49
-73.00
-77.46
-83.41
-90.94
-99.37
-107.29
-112.73
-113.65
-108.51
-96.83
-79.39
-58.07
-35.31
-13.43
5.83
21.56
33.56
42.03
47.29
49.72
49.74
47.95
45.12
42.05
39.48
37.87
37.38
37.88
39.13
40.83
42.68
44.44
45.81
46.53
46.38
45.19
42.92
39.69
35.73
31.35
26.83
22.36
17.94
13.50
8.90
4.19
-0.48
-4.90
-8.92
-12.61
-16.23
-20.14
-24.54
-29.44
-34.56
-39.55
-44.13
-48.24
-52.08
-56.00
-60.48
-66.01
-72.95
-81.33
-90.63
-99.58
-106.27
-108.61
-104.93
-94.62
-78.40
-58.16
-36.41
-15.51
2.80
17.63
28.84
36.67
41.51
43.71
43.67
41.90
39.06
35.87
33.03
31.01
29.98
29.89
30.54
31.68
33.04
34.37
35.37
35.75
35.27
33.83
31.50
28.43
24.77
20.58
15.80
10.31
4.04
-2.92
-10.35
-17.91
-25.20
-31.96
-38.05
-43.59
-48.94
-54.61
-61.17
-69.04
-78.19
-87.90
-96.72
-102.60
-103.50
-98.08
-86.16
-68.92
-48.52
-27.41
-7.62
9.62
23.93
35.35
44.09
50.23
53.78
54.89
53.91
51.49
48.40
45.43
43.16
41.92
41.77
42.47
43.61
44.65
45.08
44.52
42.85
40.13
36.58
32.45
27.84
22.75
17.08
10.72
3.70
-3.79
-11.44
-18.91
-25.94
-32.41
-38.37
-44.00
-49.63
-55.74
-62.85
-71.36
-81.19
-91.44
-100.38
-105.70
-105.21
-97.64
-83.18
-63.50
-41.20
-19.01
1.07
18.03
31.76
42.53
50.63
56.16
59.17
59.90
58.92
57.01
55.00
53.45
52.56
52.23
52.28
52.52
52.90
53.31
53.58
53.35
52.21
49.86
46.26
41.60
36.26
30.56
24.66
18.53
11.99
4.96
-2.53
-10.26
-17.94
-25.29
-32.17
-38.65
-45.02
-51.79
-59.60
-69.05
-80.23
-92.44
-104.00
-112.47
-115.34
-110.86
-98.66
-79.93
-57.05
-32.83
-9.69
10.73
27.73
41.23
51.49
58.88
63.68
66.23
66.92
66.29
64.99
63.71
63.01
63.08
63.79
64.70
65.31
65.36
64.90
64.21
63.57
62.96
61.96
59.94
56.30
50.84
43.89
36.17
28.54
21.64
15.68
10.36
5.12
-0.67
-7.36
-14.95
-23.06
-31.09
-38.46
-44.84
-50.28
-55.24
-60.53
-67.07
-75.66
-86.59
-99.31
-112.30
-123.13
-129.05
-127.72
-118.05
-100.56
-77.30
-51.20
-25.19
-1.49
18.73
35.19
48.13
57.85
64.61
68.62
70.26
70.13
69.01
67.69
66.76
66.52
66.92
67.70
68.50
69.03
69.17
68.94
68.50
67.91
67.08
65.65
63.16
59.18
53.66
46.94
39.70
32.67
26.30
20.63
15.23
9.54
3.05
-4.41
-12.65
-21.21
-29.55
-37.19
-43.91
-49.74
-55.04
-60.36
-66.43
-73.98
-83.46
-94.69
-106.57
-117.05
-123.47
-123.35
-115.21
-99.19
-77.07
-51.70
-26.07
-2.45
17.94
34.80
48.30
58.61
65.76
69.85
71.29
70.86
69.61
68.51
68.10
68.50
69.44
70.60
71.72
72.77
73.77
74.79
75.77
76.47
76.60
75.79
73.79
70.55
66.29
61.45
56.59
52.17
48.39
45.17
42.23
39.23
35.96
32.41
28.74
25.17
21.87
18.84
15.89
12.69
8.93
4.52
-0.39
-5.41
-10.07
-14.07
-17.47
-20.68
-24.27
-28.77
-34.37
-40.86
-47.75
-54.48
-60.66
-66.21
-71.40
-76.70
-82.73
-90.05
-99.02
-109.57
-120.82
-130.95
-137.42
-137.56
-129.54
-113.05
-89.64
-62.27
-34.37
-8.85
12.54
29.27
41.63
50.21
55.55
58.09
58.28
56.80
54.52
52.33
50.95
50.75
51.70
53.44
55.50
57.44
58.99
60.07
60.72
60.98
60.82
60.14
58.73
56.43
53.09
48.79
43.70
38.16
32.50
26.97
21.73
16.78
12.03
7.32
2.52
-2.50
-7.85
-13.53
-19.50
-25.58
-31.52
-37.12
-42.28
-47.13
-52.01
-57.47
-64.08
-72.21
-81.67
-91.50
-99.90
-104.57
-103.31
-94.85
-79.35
-58.48
-34.95
-11.65
9.13
26.10
38.92
47.81
53.21
55.49
55.02
52.30
48.11
43.37
39.05
35.87
34.15
33.82
34.44
35.50
36.53
37.21
37.42
37.09
36.21
34.73
32.59
29.72
26.04
21.51
16.16
10.06
3.47
-3.26
-9.81
-15.94
-21.65
-27.08
-32.46
-38.01
-43.93
-50.43
-57.64
-65.47
-73.36
-80.04
-83.75
-82.69
-75.69
-62.77
-45.27
-25.40
-5.62
12.12
26.65
37.53
44.76
48.48
48.91
46.46
41.86
36.17
30.57
26.06
23.22
22.06
22.13
22.77
23.39
23.63
23.44
22.94
22.28
21.46
20.21
18.16
14.89
10.20
4.25
-2.49
-9.36
-15.77
-21.37
-26.22
-30.67
-35.31
-40.78
-47.60
-55.86
-65.03
-73.83
-80.33
-82.44
-78.60
-68.37
-52.66
-33.51
-13.40
5.39
21.33
33.62
42.04
46.70
47.85
46.02
41.96
36.74
31.44
27.00
23.90
22.20
21.60
21.67
22.03
22.45
22.85
23.20
23.40
23.25
22.39
20.47
17.26
12.78
7.35
1.49
-4.22
-9.43
-14.13
-18.73
-23.95
-30.61
-39.11
-49.20
-59.66
-68.44
-73.16
-71.82
-63.55
-48.96
-29.96
-9.16
10.85
28.17
41.73
51.18
56.54
58.00
55.87
50.73
43.41
35.00
26.56
18.96
12.69
7.96
4.77
2.99
2.52
3.14
4.56
6.31
7.85
8.59
8.04
5.96
2.44
-2.15
-7.21
-12.16
-16.67
-20.77
-24.87
-29.64
-35.66
-43.12
-51.49
-59.49
-65.26
-66.80
-62.61
-52.25
-36.56
-17.50
2.38
20.63
35.47
45.98
52.10
54.20
52.89
48.83
42.77
35.53
28.04
21.25
15.94
12.56
11.16
11.36
12.48
13.71
14.33
13.81
11.95
8.84
4.80
0.18
-4.74
-9.81
-15.04
-20.55
-26.53
-33.30
-41.19
-50.31
-60.23
-69.72
-76.81
-79.25
-75.31
-64.47
-47.79
-27.55
-6.61
12.55
28.27
39.87
47.34
50.95
51.02
47.90
42.17
34.71
26.69
19.40
13.90
10.71
9.69
10.09
10.86
11.03
9.98
7.67
4.44
0.78
-2.98
-6.82
-11.03
-16.09
-22.49
-30.57
-40.38
-51.57
-63.12
-73.38
-80.26
-81.68
-76.30
-64.01
-46.18
-25.18
-3.75
15.80
32.03
44.32
52.57
56.81
57.11
53.68
47.16
38.71
29.93
22.42
17.24
14.66
14.06
14.26
14.04
12.57
9.70
5.81
1.50
-2.71
-6.69
-10.72
-15.35
-21.24
-28.97
-38.84
-50.75
-63.87
-76.58
-86.57
-91.32
-88.87
-78.48
-61.08
-38.97
-15.16
7.53
27.14
42.79
54.33
62.00
65.92
66.13
62.84
56.65
48.70
40.50
33.52
28.76
26.39
25.76
25.73
25.13
23.19
19.78
15.29
10.31
5.30
0.32
-4.99
-11.22
-18.96
-28.63
-40.38
-53.92
-68.42
-82.26
-93.14
-98.51
-96.25
-85.50
-67.13
-43.50
-17.88
6.58
27.58
44.09
56.04
63.93
68.33
69.66
68.26
64.55
59.22
53.16
47.35
42.59
39.32
37.52
36.79
36.48
35.81
34.14
31.01
26.30
20.20
13.08
5.44
-2.41
-10.33
-18.48
-27.22
-37.02
-48.30
-61.28
-75.64
-90.24
-102.93
-110.89
-111.41
-102.81
-85.21
-60.70
-32.71
-4.89
19.91
40.21
55.82
67.11
74.56
78.42
78.87
76.39
71.95
66.91
62.52
59.60
58.21
57.72
57.31
56.28
54.43
52.03
49.52
47.15
44.73
41.58
36.83
29.78
20.32
9.07
-2.85
-14.18
-24.04
-32.22
-39.22
-45.99
-53.69
-63.28
-75.25
-89.31
-104.14
-117.43
-126.17
-127.44
-119.36
-101.89
-76.92
-47.77
-18.12
9.07
32.19
50.86
65.46
76.48
84.14
88.48
89.69
88.37
85.58
82.56
80.26
79.08
78.71
78.47
77.70
76.13
74.00
71.83
70.09
68.81
67.47
65.18
61.10
54.79
46.48
36.99
27.41
18.63
11.07
4.52
-1.65
-8.16
-15.53
-23.82
-32.71
-41.58
-49.77
-56.92
-62.97
-68.32
-73.72
-80.18
-88.62
-99.64
-112.98
-127.22
-139.72
-147.14
-146.36
-135.58
-115.06
-87.13
-55.49
-23.99
4.41
28.22
47.23
61.96
72.97
80.56
84.93
86.40
85.67
83.80
81.89
80.79
80.84
81.88
83.43
84.94
86.05
86.66
86.88
86.81
86.47
85.67
84.06
81.31
77.25
72.01
66.03
59.90
54.19
49.25
45.16
41.69
38.51
35.25
31.62
27.54
23.09
18.54
14.24
10.44
7.26
4.54
1.87
-1.22
-5.05
-9.66
-14.77
-19.88
-24.57
-28.67
-32.39
-36.18
-40.62
-46.05
-52.52
-59.71
-67.07
-74.03
-80.21
-85.51
-90.20
-94.89
-100.39
-107.59
-117.16
-129.05
-142.09
-153.84
-160.98
-160.21
-149.45
-128.71
-100.22
-67.73
-35.29
-6.07
18.26
37.45
52.01
62.58
69.58
73.28
74.09
72.78
70.42
68.18
66.94
67.05
68.33
70.30
72.41
74.29
75.84
77.07
78.00
78.55
78.43
77.32
74.96
71.32
66.57
61.14
55.47
49.96
44.92
40.48
36.60
33.17
29.96
26.74
23.37
19.82
16.23
12.84
9.89
7.43
5.26
3.04
0.34
-3.11
-7.33
-12.06
-16.84
-21.25
-25.05
-28.34
-31.52
-35.17
-39.72
-45.33
-51.74
-58.40
-64.66
-70.12
-74.67
-78.63
-82.58
-87.26
-93.46
-101.76
-112.24
-124.07
-135.25
-142.87
-143.81
-135.83
-118.51
-93.53
-64.17
-34.26
-6.99
15.74
33.36
46.16
54.77
59.78
61.71
61.16
58.91
55.85
52.87
50.63
49.47
49.42
50.26
51.66
53.30
54.95
56.41
57.56
58.24
58.22
57.25
55.11
51.72
47.18
41.80
36.08
30.57
25.72
21.71
18.42
15.41
12.16
8.25
3.59
-1.56
-6.69
-11.24
-14.85
-17.57
-19.81
-22.28
-25.66
-30.39
-36.47
-43.47
-50.70
-57.45
-63.29
-68.22
-72.66
-77.35
-83.17
-90.89
-100.88
-112.81
-125.32
-136.03
-142.02
-140.62
-130.33
-111.46
-86.06
-57.32
-28.56
-2.42
19.64
37.20
50.56
60.22
66.60
70.07
70.98
69.79
67.13
63.76
60.42
57.75
56.10
55.56
55.97
57.07
58.59
60.25
61.72
62.64
62.56
61.14
58.22
53.94
48.65
42.81
36.78
30.74
24.68
18.51
12.19
5.80
-0.44
-6.30
-11.68
-16.67
-21.60
-26.84
-32.65
-39.01
-45.64
-52.13
-58.16
-63.66
-68.87
-74.34
-80.77
-88.86
-99.09
-111.29
-124.33
-135.98
-143.34
-143.56
-134.88
-117.30
-92.68
-64.12
-35.00
-8.02
15.18
34.04
48.62
59.20
66.11
69.72
70.60
69.52
67.38
64.99
62.90
61.35
60.30
59.55
59.03
58.72
58.77
59.23
59.95
60.49
60.17
58.36
54.68
49.24
42.62
35.63
29.01
23.04
17.50
11.78
5.23
-2.46
-11.13
-20.20
-28.90
-36.64
-43.25
-49.03
-54.64
-60.96
-68.84
-78.79
-90.65
-103.33
-114.74
-122.18
-123.04
-115.66
-99.97
-77.59
-51.32
-24.27
0.94
22.69
40.34
53.88
63.55
69.70
72.64
72.86
71.04
68.00
64.55
61.36
58.87
57.27
56.56
56.64
57.31
58.28
59.15
59.43
58.60
56.30
52.44
47.25
41.17
34.69
28.16
21.62
14.96
7.93
0.42
-7.51
-15.57
-23.38
-30.61
-37.11
-43.00
-48.72
-54.94
-62.45
-71.83
-83.09
-95.26
-106.35
-113.69
-114.58
-107.30
-91.72
-69.45
-43.30
-16.47
8.37
29.53
46.31
58.64
66.68
70.71
71.16
68.77
64.68
60.20
56.48
54.21
53.47
53.83
54.68
55.47
55.97
56.16
56.05
55.54
54.33
52.04
48.42
43.57
37.89
31.88
25.92
20.10
14.19
7.85
0.83
-6.84
-14.83
-22.61
-29.71
-35.87
-41.21
-46.21
-51.60
-58.19
-66.57
-76.84
-88.20
-98.93
-106.51
-108.30
-102.37
-88.24
-67.23
-42.01
-15.80
8.60
29.46
46.13
58.64
67.24
72.05
73.22
71.22
67.01
61.92
57.35
54.23
52.85
52.84
53.56
54.39
55.05
55.54
55.99
56.43
56.60
55.98
54.03
50.39
45.08
38.57
31.57
24.86
18.91
13.76
9.06
4.27
-1.12
-7.33
-14.21
-21.36
-28.23
-34.38
-39.61
-44.08
-48.32
-53.08
-59.22
-67.36
-77.51
-88.73
-99.07
-105.96
-106.80
-99.94
-85.22
-64.15
-39.51
-14.40
8.47
27.43
41.86
51.82
57.69
59.91
58.97
55.57
50.65
45.40
40.97
38.17
37.32
38.17
40.09
42.29
44.09
45.08
45.16
44.44
43.12
41.33
39.00
35.94
31.87
26.63
20.29
13.17
5.76
-1.44
-8.07
-14.01
-19.38
-24.48
-29.65
-35.28
-41.69
-49.12
-57.48
-66.24
-74.22
-79.66
-80.68
-75.77
-64.47
-47.52
-26.87
-5.02
15.57
33.06
46.41
55.29
59.80
60.30
57.37
51.91
45.11
38.34
32.77
29.09
27.34
27.00
27.35
27.81
28.10
28.17
28.06
27.61
26.45
24.11
20.25
14.82
8.11
0.72
-6.72
-13.69
-19.92
-25.47
-30.65
-35.98
-42.03
-49.29
-57.89
-67.28
-76.13
-82.41
-83.95
-79.13
-67.58
-50.37
-29.77
-8.52
10.92
26.90
38.70
46.24
49.79
49.70
46.50
40.92
33.97
26.86
20.67
16.18
13.67
12.93
13.46
14.62
15.84
16.63
16.68
15.67
13.40
9.74
4.74
-1.33
-8.01
-14.78
-21.26
-27.33
-33.25
-39.61
-47.09
-56.19
-66.76
-77.73
-87.16
-92.56
-91.70
-83.38
-67.96
-47.37
-24.52
-2.45
16.52
31.18
41.36
47.48
50.18
49.97
47.33
42.80
37.09
31.11
25.73
21.64
19.14
18.14
18.23
18.80
19.18
18.81
17.22
14.22
9.78
4.09
-2.50
-9.58
-16.76
-23.78
-30.63
-37.57
-45.13
-53.92
-64.30
-75.99
-87.77
-97.50
-102.61
-100.84
-91.11
-73.93
-51.44
-26.68
-2.75
18.03
34.46
46.36
54.14
58.31
59.37
57.78
54.18
49.42
44.48
40.18
37.01
35.02
33.92
33.31
32.86
32.32
31.50
30.11
27.71
23.86
18.27
10.99
2.48
-6.56
-15.37
-23.42
-30.63
-37.35
-44.27
-52.25
-62.01
-73.69
-86.60
-98.93
-108.09
-111.26
-106.41
-92.98
-72.28
-47.04
-20.58
4.24
25.65
43.08
56.80
67.29
74.89
79.68
81.75
81.45
79.53
77.04
75.03
74.16
74.61
76.00
77.75
79.30
80.39
81.02
81.31
81.28
80.72
79.31
76.75
72.99
68.32
63.32
58.56
54.47
51.14
48.31
45.58
42.58
39.21
35.61
32.12
29.04
26.46
24.21
21.88
19.04
15.40
10.96
6.00
1.00
-3.61
-7.55
-10.81
-13.60
-16.32
-19.37
-23.06
-27.44
-32.28
-37.19
-41.72
-45.66
-49.14
-52.64
-56.80
-62.15
-68.76
-76.19
-83.68
-90.50
-96.32
-101.31
-106.16
-111.87
-119.41
-129.47
-142.00
-155.83
-168.54
-176.79
-177.15
-167.26
-146.78
-117.71
-83.80
-49.30
-17.78
8.78
29.90
46.12
58.22
66.78
72.16
74.73
75.21
74.61
74.06
74.38
75.86
78.18
80.77
83.02
84.66
85.76
86.55
87.22
87.67
87.51
86.28
83.60
79.47
74.23
68.48
62.87
57.89
53.71
50.27
47.36
44.67
42.04
39.33
36.58
33.85
31.24
28.81
26.53
24.26
21.79
18.98
15.83
12.47
9.11
5.91
2.82
-0.36
-3.94
-8.11
-12.81
-17.78
-22.64
-27.11
-31.16
-35.05
-39.22
-44.13
-50.00
-56.78
-64.10
-71.42
-78.21
-84.22
-89.55
-94.67
-100.37
-107.50
-116.76
-128.28
-141.21
-153.60
-162.57
-165.03
-158.62
-142.58
-118.15
-88.23
-56.46
-26.16
0.42
22.33
39.60
52.65
61.95
67.83
70.73
71.29
70.45
69.23
68.49
68.67
69.79
71.53
73.52
75.49
77.39
79.26
81.10
82.74
83.80
83.80
82.42
79.55
75.41
70.39
64.98
59.50
54.15
48.92
43.78
38.66
33.56
28.55
23.71
19.04
14.49
9.90
5.13
0.12
-5.04
-10.12
-14.87
-19.14
-23.08
-27.05
-31.56
-36.99
-43.37
-50.41
-57.63
-64.52
-70.82
-76.61
-82.20
-88.17
-95.17
-103.84
-114.49
-126.75
-139.26
-149.71
-155.18
-153.09
-141.99
-122.27
-96.06
-66.63
-37.36
-10.85
11.51
29.46
43.38
53.83
61.22
65.86
68.10
68.46
67.69
66.60
65.82
65.65
66.05
66.81
67.67
68.55
69.44
70.39
71.33
71.98
71.96
70.89
68.54
64.97
60.38
55.04
49.17
42.86
36.12
28.95
21.50
14.07
7.00
0.56
-5.20
-10.52
-15.83
-21.64
-28.20
-35.46
-43.07
-50.53
-57.47
-63.87
-70.08
-76.76
-84.73
-94.65
-106.67
-120.13
-133.36
-143.83
-148.71
-145.73
-133.93
-114.08
-88.51
-60.33
-32.56
-7.40
14.04
31.47
45.10
55.24
62.16
66.23
67.98
68.16
67.62
67.11
67.05
67.56
68.42
69.32
70.03
70.43
70.60
70.60
70.38
69.66
67.99
64.91
60.17
53.92
46.65
39.05
31.72
24.90
18.36
11.59
4.07
-4.37
-13.45
-22.52
-30.83
-37.95
-43.92
-49.32
-55.06
-62.16
-71.37
-82.94
-96.22
-109.58
-120.57
-126.38
-124.67
-114.35
-96.01
-71.81
-44.84
-18.20
5.86
26.07
42.21
54.48
63.25
68.76
71.31
71.34
69.59
66.96
64.27
62.09
60.60
59.75
59.36
59.34
59.64
60.18
60.77
61.04
60.48
58.66
55.37
50.70
44.98
38.69
32.15
25.54
18.78
11.68
4.08
-4.06
-12.51
-20.88
-28.71
-35.70
-41.86
-47.57
-53.60
-60.91
-70.31
-81.95
-94.97
-107.36
-116.31
-118.97
-113.41
-99.30
-78.12
-52.67
-26.23
-1.57
19.61
36.66
49.70
59.10
65.12
67.92
67.75
65.16
61.06
56.59
52.84
50.52
49.86
50.61
52.24
54.12
55.72
56.68
56.75
55.82
53.85
50.85
46.88
42.07
36.53
30.38
23.66
16.41
8.66
0.51
-7.83
-16.04
-23.79
-30.89
-37.45
-43.89
-50.94
-59.33
-69.49
-81.11
-92.89
-102.64
-107.73
-105.90
-96.03
-78.59
-55.64
-30.11
-5.04
17.29
35.65
49.71
59.61
65.60
67.79
66.46
62.24
56.25
50.01
45.06
42.48
42.55
44.73
47.90
50.87
52.74
53.21
52.48
51.01
49.17
46.97
44.11
40.04
34.31
26.80
17.84
8.12
-1.52
-10.36
-18.06
-24.74
-30.80
-36.83
-43.42
-50.98
-59.72
-69.47
-79.44
-88.20
-93.70
-93.77
-86.90
-72.80
-52.76
-29.27
-5.24
16.79
35.17
49.13
58.45
63.20
63.59
60.19
54.06
46.77
40.07
35.37
33.37
33.86
35.96
38.49
40.45
41.37
41.28
40.56
39.51
38.11
35.94
32.35
26.91
19.61
11.01
2.03
-6.46
-13.93
-20.34
-26.08
-31.81
-38.22
-45.89
-55.12
-65.58
-76.16
-84.90
-89.35
-87.31
-77.65
-60.83
-38.82
-14.53
9.03
29.52
45.56
56.63
62.80
64.41
62.07
56.69
49.50
41.94
35.30
30.47
27.70
26.66
26.72
27.22
27.72
28.03
28.08
27.74
26.66
24.40
20.51
14.87
7.71
-0.38
-8.67
-16.55
-23.72
-30.28
-36.70
-43.71
-52.05
-62.10
-73.53
-84.99
-94.18
-98.37
-95.27
-83.82
-64.80
-40.60
-14.55
10.06
30.79
46.40
56.71
62.20
63.60
61.69
57.27
51.26
44.61
38.27
33.00
29.21
26.89
25.76
25.39
25.37
25.37
25.07
24.14
22.17
18.77
13.74
7.20
-0.40
-8.37
-16.11
-23.27
-29.98
-36.76
-44.42
-53.74
-65.03
-77.72
-90.18
-99.82
-103.73
-99.63
-86.77
-66.32
-41.11
-14.66
9.78
30.08
45.40
55.86
62.00
64.40
63.61
60.19
54.89
48.64
42.41
37.00
32.87
30.14
28.70
28.25
28.45
28.85
28.93
28.12
25.87
21.81
15.82
8.20
-0.46
-9.40
-17.97
-25.84
-33.16
-40.52
-48.77
-58.74
-70.68
-83.94
-96.68
-106.21
-109.57
-104.60
-90.72
-69.30
-43.30
-16.30
8.52
29.17
44.91
55.97
62.88
66.14
66.18
63.51
58.95
53.56
48.38
44.15
41.05
38.82
37.02
35.37
33.87
32.68
31.86
31.13
29.82
27.05
22.12
14.82
5.57
-4.72
-14.96
-24.28
-32.34
-39.39
-46.27
-54.10
-63.90
-76.15
-90.34
-104.70
-116.39
-122.22
-119.59
-107.51
-86.99
-60.84
-32.73
-6.05
16.96
35.48
49.74
60.38
67.89
72.47
74.18
73.25
70.33
66.37
62.42
59.31
57.43
56.72
56.81
57.22
57.52
57.35
56.41
54.44
51.24
46.71
40.99
34.32
27.07
19.52
11.74
3.60
-5.06
-14.31
-23.97
-33.61
-42.75
-51.02
-58.41
-65.18
-71.95
-79.49
-88.58
-99.76
-112.83
-126.49
-138.22
-144.77
-143.04
-131.32
-109.98
-81.57
-49.99
-19.17
8.04
30.39
48.00
61.68
72.17
79.79
84.60
86.72
86.63
85.21
83.47
82.24
81.88
82.29
83.11
83.96
84.64
85.15
85.55
85.77
85.60
84.66
82.57
79.15
74.48
68.94
63.07
57.46
52.56
48.52
45.22
42.29
39.38
36.22
32.79
29.19
25.60
22.14
18.80
15.50
12.13
8.66
5.11
1.53
-2.07
-5.79
-9.80
-14.25
-19.22
-24.55
-29.91
-34.96
-39.48
-43.61
-47.80
-52.58
-58.34
-65.04
-72.23
-79.22
-85.45
-90.71
-95.21
-99.57
-104.65
-111.37
-120.42
-131.88
-144.83
-157.05
-165.34
-166.32
-157.55
-138.58
-111.20
-78.92
-45.81
-15.28
10.67
31.47
47.42
59.12
67.02
71.49
73.06
72.57
71.15
69.86
69.44
70.04
71.37
72.93
74.32
75.46
76.50
77.71
79.19
80.77
81.95
82.08
80.64
77.44
72.71
67.04
61.14
55.61
50.72
46.39
42.34
38.24
33.97
29.62
25.40
21.51
18.03
14.81
11.55
7.91
3.69
-1.08
-6.16
-11.17
-15.83
-20.11
-24.28
-28.84
-34.29
-40.87
-48.39
-56.31
-63.93
-70.70
-76.41
-81.33
-86.17
-91.88
-99.37
-109.10
-120.71
-132.72
-142.65
-147.51
-144.72
-132.97
-112.77
-86.36
-57.00
-27.98
-1.86
20.00
37.25
50.19
59.34
65.25
68.46
69.55
69.21
68.15
66.99
66.10
65.58
65.34
65.22
65.11
65.05
65.12
65.35
65.60
65.51
64.60
62.47
58.96
54.23
48.67
42.71
36.73
30.90
25.27
19.79
14.40
9.08
3.84
-1.34
-6.51
-11.76
-17.20
-22.93
-28.95
-35.16
-41.40
-47.43
-53.12
-58.49
-63.81
-69.60
-76.58
-85.40
-96.30
-108.70
-121.02
-130.73
-134.98
-131.46
-119.19
-99.00
-73.30
-45.36
-18.34
5.46
24.95
40.02
51.13
58.82
63.57
65.76
65.81
64.27
61.81
59.07
56.58
54.58
53.16
52.25
51.76
51.60
51.65
51.66
51.23
49.92
47.38
43.49
38.44
32.59
26.34
19.92
13.35
6.54
-0.64
-8.19
-15.90
-23.45
-30.51
-36.83
-42.44
-47.70
-53.18
-59.68
-67.91
-78.09
-89.66
-101.00
-109.69
-113.05
-109.06
-97.03
-78.04
-54.54
-29.63
-6.13
14.10
30.33
42.76
51.91
58.30
62.18
63.71
63.13
60.92
57.84
54.71
52.19
50.59
49.87
49.71
49.76
49.72
49.41
48.70
47.46
45.49
42.62
38.78
34.00
28.43
22.22
15.45
8.20
0.53
-7.43
-15.43
-23.18
-30.47
-37.19
-43.42
-49.49
-55.90
-63.32
-72.34
-83.08
-94.88
-106.04
-114.11
-116.49
-111.37
-98.34
-78.72
-55.02
-30.19
-6.76
13.69
30.54
43.81
53.67
60.29
63.74
64.21
62.22
58.61
54.42
50.64
47.93
46.48
46.02
46.06
46.07
45.75
45.01
43.96
42.72
41.24
39.31
36.52
32.48
26.95
19.99
11.95
3.45
-4.87
-12.50
-19.29
-25.45
-31.46
-37.90
-45.27
-53.91
-63.88
-74.80
-85.68
-94.87
-100.28
-99.89
-92.42
-77.93
-57.89
-34.74
-11.24
10.40
28.84
43.59
54.60
61.97
65.77
66.21
63.82
59.53
54.53
49.95
46.55
44.53
43.62
43.27
42.96
42.38
41.46
40.30
39.03
37.64
35.91
33.52
30.05
25.22
18.97
11.58
3.61
-4.31
-11.64
-18.12
-23.86
-29.26
-34.92
-41.45
-49.39
-59.00
-70.03
-81.51
-91.66
-98.15
-98.71
-91.87
-77.62
-57.50
-34.12
-10.39
11.36
29.67
44.01
54.29
60.60
63.05
61.97
58.06
52.48
46.60
41.72
38.59
37.36
37.59
38.55
39.52
40.04
39.91
39.23
38.11
36.56
34.41
31.29
26.85
20.91
13.66
5.56
-2.67
-10.41
-17.31
-23.39
-28.99
-34.68
-41.08
-48.68
-57.71
-67.85
-78.02
-86.44
-90.91
-89.44
-80.96
-65.82
-45.74
-23.34
-1.28
18.37
34.40
46.39
54.29
58.18
58.28
55.07
49.47
42.82
36.53
31.75
29.01
28.16
28.60
29.62
30.65
31.46
31.92
31.95
31.28
29.51
26.27
21.40
15.11
7.96
0.66
-6.20
-12.34
-17.90
-23.34
-29.33
-36.49
-45.14
-55.03
-65.12
-73.64
-78.37
-77.37
-69.54
-55.22
-36.06
-14.64
6.34
24.72
39.16
49.16
54.72
56.11
53.84
48.69
41.76
34.38
27.77
22.77
19.72
18.44
18.51
19.39
20.66
21.93
22.80
22.88
21.81
19.35
15.47
10.37
4.41
-1.97
-8.40
-14.66
-20.72
-26.85
-33.50
-41.27
-50.53
-61.01
-71.58
-80.18
-84.37
-81.98
-72.05
-55.25
-33.77
-10.63
11.18
29.52
43.32
52.46
57.25
58.17
55.70
50.44
43.26
35.31
27.82
21.88
18.10
16.62
17.02
18.56
20.38
21.59
21.53
19.79
16.31
11.36
5.43
-0.96
-7.42
-13.76
-20.08
-26.71
-34.13
-42.84
-53.14
-64.80
-76.76
-87.07
-93.27
-93.01
-84.91
-69.17
-47.62
-23.18
0.97
22.19
38.91
50.57
57.29
59.54
57.93
53.18
46.22
38.16
30.25
23.65
19.11
16.90
16.66
17.62
18.80
19.32
18.62
16.52
13.17
8.88
3.94
-1.46
-7.29
-13.57
-20.44
-28.13
-36.97
-47.27
-59.06
-71.70
-83.61
-92.41
-95.54
-91.06
-78.46
-58.96
-35.15
-10.21
13.00
32.53
47.45
57.67
63.43
65.09
63.06
57.93
50.62
42.36
34.52
28.28
24.30
22.60
22.58
23.26
23.68
23.09
21.15
17.83
13.30
7.75
1.37
-5.68
-13.20
-21.01
-29.02
-37.41
-46.60
-57.10
-69.04
-81.67
-93.18
-100.88
-102.03
-94.82
-79.15
-56.80
-30.88
-4.86
18.38
37.11
50.76
59.57
64.11
65.04
63.01
58.71
52.92
46.52
40.35
35.19
31.53
29.50
28.83
28.87
28.82
27.87
25.51
21.54
16.10
9.56
2.33
-5.23
-12.97
-20.86
-29.11
-38.08
-48.23
-59.93
-73.15
-87.12
-100.16
-109.81
-113.38
-108.85
-95.60
-74.72
-48.80
-21.05
5.48
28.67
47.44
61.46
70.77
75.59
76.35
73.81
69.19
63.88
59.14
55.62
53.34
51.79
50.32
48.53
46.39
44.13
41.96
39.80
37.17
33.38
27.76
20.09
10.62
0.10
-10.52
-20.40
-29.09
-36.69
-43.73
-51.15
-59.94
-70.91
-84.25
-99.06
-113.23
-123.72
-127.33
-121.77
-106.51
-83.10
-54.64
-24.78
3.39
28.02
48.53
65.07
77.96
87.33
93.07
95.32
94.64
92.15
89.18
86.91
85.91
86.13
87.03
87.99
88.60
88.78
88.67
88.35
87.76
86.65
84.67
81.61
77.44
72.37
66.76
61.04
55.57
50.59
46.18
42.25
38.62
35.07
31.40
27.51
23.42
19.28
15.33
11.79
8.80
6.24
3.82
1.09
-2.32
-6.61
-11.70
-17.25
-22.84
-28.06
-32.69
-36.86
-40.97
-45.61
-51.29
-58.20
-66.12
-74.42
-82.35
-89.31
-95.19
-100.43
-105.83
-112.46
-121.24
-132.62
-146.07
-159.88
-171.10
-176.21
-172.10
-157.18
-132.16
-99.87
-64.45
-30.05
0.31
25.20
44.60
59.26
70.00
77.41
81.86
83.78
83.84
82.95
82.04
81.79
82.41
83.66
85.10
86.34
87.22
87.81
88.25
88.59
88.59
87.86
85.96
82.64
77.95
72.32
66.34
60.63
55.59
51.40
47.91
44.83
41.82
38.65
35.22
31.57
27.78
23.99
20.34
16.95
13.91
11.17
8.54
5.67
2.19
-2.09
-7.12
-12.51
-17.74
-22.35
-26.17
-29.43
-32.63
-36.33
-40.90
-46.33
-52.27
-58.18
-63.61
-68.35
-72.57
-76.74
-81.52
-87.58
-95.45
-105.20
-116.16
-126.70
-134.36
-136.37
-130.52
-115.98
-93.75
-66.47
-37.57
-10.28
13.19
31.86
45.81
55.56
61.79
65.02
65.81
64.74
62.59
60.11
57.98
56.59
56.05
56.20
56.77
57.54
58.34
59.14
59.86
60.40
60.56
60.07
58.70
56.34
53.05
49.04
44.56
39.93
35.35
30.99
26.94
23.20
19.74
16.45
13.20
9.87
6.35
2.64
-1.22
-5.09
-8.83
-12.32
-15.60
-18.86
-22.42
-26.56
-31.38
-36.73
-42.25
-47.51
-52.19
-56.30
-60.08
-64.00
-68.65
-74.55
-82.05
-91.03
-100.74
-109.58
-115.34
-115.70
-109.02
-95.00
-74.90
-51.26
-27.00
-4.67
14.20
29.08
40.19
48.05
53.10
55.70
56.16
54.91
52.57
49.82
47.29
45.37
44.15
43.52
43.25
43.17
43.24
43.46
43.81
44.15
44.22
43.68
42.24
39.71
36.09
31.49
26.15
20.42
14.71
9.45
4.90
1.07
-2.28
-5.62
-9.47
-14.14
-19.64
-25.67
-31.74
-37.39
-42.40
-46.83
-50.99
-55.34
-60.37
-66.45
-73.87
-82.55
-91.90
-100.61
-106.79
-108.35
-103.70
-92.34
-75.14
-54.14
-31.86
-10.69
7.77
22.75
34.14
42.20
47.26
49.74
50.11
49.00
47.03
44.73
42.44
40.30
38.38
36.77
35.65
35.16
35.30
35.85
36.32
36.20
35.03
32.64
29.13
24.79
19.97
14.93
9.83
4.67
-0.62
-6.11
-11.86
-17.84
-23.92
-29.95
-35.78
-41.36
-46.83
-52.51
-58.90
-66.47
-75.36
-85.07
-94.30
-101.07
-103.22
-99.10
-88.23
-71.52
-51.04
-29.35
-8.75
9.25
24.03
35.59
44.17
49.95
53.05
53.67
52.21
49.37
46.00
42.83
40.35
38.67
37.70
37.17
36.88
36.61
36.18
35.44
34.25
32.53
30.22
27.28
23.64
19.13
13.62
7.06
-0.35
-8.21
-16.02
-23.33
-29.92
-35.92
-41.61
-47.46
-53.94
-61.53
-70.52
-80.80
-91.64
-101.48
-108.21
-109.64
-104.27
-91.87
-73.66
-51.93
-29.28
-7.89
10.92
26.61
39.13
48.52
54.70
57.61
57.46
54.89
50.94
46.82
43.53
41.58
40.94
41.16
41.62
41.80
41.45
40.59
39.39
37.99
36.33
34.17
31.12
26.84
21.19
14.29
6.50
-1.65
-9.68
-17.20
-24.08
-30.38
-36.38
-42.55
-49.50
-57.77
-67.61
-78.68
-89.82
-99.11
-104.25
-103.23
-95.00
-79.89
-59.56
-36.48
-13.24
8.11
26.34
40.96
51.93
59.38
63.51
64.61
63.25
60.27
56.70
53.52
51.39
50.49
50.57
51.06
51.36
51.08
50.10
48.55
46.66
44.50
41.91
38.50
33.79
27.45
19.56
10.58
1.31
-7.46
-15.22
-21.94
-27.98
-33.96
-40.52
-48.13
-57.03
-67.12
-77.83
-87.98
-95.76
-99.07
-96.07
-85.98
-69.32
-47.98
-24.55
-1.57
19.09
36.46
50.14
60.01
65.94
67.92
66.28
61.93
56.27
50.81
46.75
44.58
44.08
44.55
45.22
45.58
45.47
45.01
44.32
43.36
41.89
39.49
35.74
30.38
23.44
15.25
6.44
-2.27
-10.27
-17.30
-23.57
-29.61
-36.22
-44.12
-53.72
-64.80
-76.37
-86.70
-93.53
-94.71
-88.83
-75.69
-56.54
-33.69
-9.85
12.53
31.75
46.92
57.73
64.16
66.40
64.86
60.38
54.22
47.83
42.52
39.04
37.48
37.29
37.71
38.09
38.14
37.88
37.39
36.65
35.29
32.80
28.69
22.85
15.58
7.57
-0.42
-7.80
-14.33
-20.20
-25.89
-32.06
-39.32
-48.02
-58.03
-68.44
-77.61
-83.36
-83.55
-76.84
-63.19
-44.03
-21.82
0.62
20.92
37.57
49.90
57.86
61.72
61.89
58.97
53.84
47.62
41.43
36.18
32.38
30.08
29.07
28.97
29.45
30.18
30.86
31.12
30.55
28.77
25.49
20.65
14.45
7.32
-0.11
-7.25
-13.74
-19.60
-25.28
-31.58
-39.27
-48.77
-59.64
-70.48
-79.07
-82.94
-80.10
-69.79
-52.80
-31.23
-7.93
14.30
33.33
47.95
57.78
63.00
64.10
61.76
56.81
50.29
43.34
37.06
32.25
29.30
28.12
28.22
28.94
29.66
29.92
29.48
28.21
26.01
22.81
18.51
13.19
7.07
0.54
-6.01
-12.30
-18.27
-24.22
-30.63
-38.07
-46.80
-56.44
-65.73
-72.66
-74.94
-70.81
-59.73
-42.71
-22.03
-0.53
19.25
35.58
47.70
55.46
59.05
58.69
54.77
47.99
39.52
30.80
23.22
17.77
14.79
13.98
14.64
15.96
17.24
17.99
17.94
16.94
14.96
11.97
8.04
3.29
-2.04
-7.69
-13.50
-19.60
-26.42
-34.51
-44.18
-54.90
-65.18
-72.70
-75.03
-70.52
-59.01
-41.95
-21.85
-1.51
16.82
31.76
42.78
49.77
52.73
51.73
46.98
39.18
29.56
19.78
11.53
6.02
3.62
3.76
5.22
6.59
6.80
5.45
2.78
-0.59
-4.07
-7.39
-10.74
-14.55
-19.38
-25.66
-33.68
-43.41
-54.39
-65.54
-75.11
-80.89
-80.86
-73.85
-60.09
-41.28
-20.09
0.68
18.80
32.96
42.71
48.12
49.41
46.94
41.26
33.30
24.42
16.14
9.73
5.83
4.25
4.12
4.27
3.68
1.90
-0.94
-4.34
-7.74
-10.95
-14.14
-17.86
-22.76
-29.45
-38.28
-49.24
-61.75
-74.51
-85.48
-92.22
-92.53
-85.20
-70.52
-50.35
-27.50
-4.90
15.14
31.31
43.16
50.68
53.96
53.12
48.50
40.92
31.79
22.85
15.66
11.17
9.36
9.37
9.88
9.60
7.80
4.39
-0.15
-5.18
-10.22
-15.19
-20.38
-26.33
-33.59
-42.63
-53.66
-66.40
-79.90
-92.37
-101.41
-104.46
-99.70
-86.73
-66.80
-42.55
-17.15
6.63
26.97
43.08
54.83
62.38
65.89
65.59
61.98
55.94
48.76
41.81
36.27
32.80
31.37
31.40
31.89
31.78
30.28
27.04
22.18
16.08
9.20
1.79
-6.07
-14.44
-23.43
-33.15
-43.78
-55.56
-68.64
-82.67
-96.45
-107.83
-114.12
-112.91
-103.02
-85.02
-61.07
-34.29
-7.63
16.74
37.69
54.86
68.12
77.31
82.28
83.25
80.98
76.90
72.62
69.40
67.73
67.26
67.13
66.45
64.82
62.39
59.68
57.06
54.47
51.27
46.54
39.52
30.00
18.50
5.97
-6.44
-17.87
-27.96
-36.86
-45.20
-53.86
-63.77
-75.66
-89.64
-104.82
-119.17
-129.79
-133.60
-128.40
-113.63
-90.64
-62.26
-31.83
-2.27
24.53
47.74
67.15
82.73
94.37
102.00
105.82
106.55
105.31
103.41
101.88
101.24
101.48
102.22
103.07
103.79
104.31
104.72
104.97
104.87
104.05
102.11
98.80
94.20
88.68
82.81
77.18
72.15
67.84
64.10
60.61
57.10
53.40
49.56
45.73
42.15
38.94
36.04
33.22
30.17
26.61
22.46
17.85
13.04
8.23
3.45
-1.44
-6.67
-12.33
-18.27
-24.15
-29.56
-34.28
-38.44
-42.49
-47.01
-52.50
-59.12
-66.67
-74.65
-82.48
-89.67
-96.02
-101.66
-107.01
-112.89
-120.26
-130.00
-142.39
-156.64
-170.55
-180.77
-183.68
-176.53
-158.51
-131.10
-97.72
-62.55
-29.27
-0.17
24.00
43.52
59.06
71.03
79.60
84.86
87.24
87.57
87.00
86.62
87.05
88.37
90.18
91.94
93.26
94.03
94.37
94.44
94.25
93.61
92.17
89.55
85.61
80.52
74.73
68.88
63.53
58.98
55.13
51.59
47.85
43.58
38.77
33.76
29.04
25.01
21.79
19.16
16.68
13.89
10.48
6.35
1.60
-3.55
-8.80
-13.92
-18.72
-23.19
-27.54
-32.08
-37.17
-42.97
-49.34
-55.85
-61.91
-67.10
-71.33
-75.02
-78.99
-84.20
-91.44
-100.87
-111.76
-122.37
-130.17
-132.52
-127.47
-114.38
-94.30
-69.59
-43.19
-17.78
4.79
23.67
38.73
50.16
58.27
63.32
65.68
65.95
64.90
63.36
61.99
61.21
61.07
61.44
62.02
62.60
63.07
63.44
63.74
63.93
63.83
63.09
61.39
58.49
54.42
49.54
44.41
39.60
35.54
32.32
29.76
27.47
25.06
22.31
19.23
15.98
12.86
10.07
7.72
5.71
3.78
1.63
-0.99
-4.20
-7.92
-11.89
-15.82
-19.45
-22.70
-25.69
-28.73
-32.16
-36.22
-40.97
-46.20
-51.54
-56.62
-61.18
-65.22
-68.94
-72.76
-77.24
-82.89
-90.00
-98.33
-106.85
-113.74
-116.72
-113.72
-103.70
-87.08
-65.79
-42.61
-20.29
-0.80
15.04
27.29
36.51
43.18
47.60
49.93
50.41
49.53
47.93
46.29
45.11
44.60
44.68
45.09
45.60
46.00
46.24
46.35
46.34
46.14
45.60
44.45
42.44
39.46
35.58
31.08
26.38
21.89
17.92
14.58
11.80
9.38
7.03
4.45
1.39
-2.18
-6.12
-10.07
-13.68
-16.75
-19.39
-22.01
-25.14
-29.17
-34.12
-39.67
-45.29
-50.45
-54.90
-58.71
-62.31
-66.36
-71.50
-78.14
-86.22
-95.01
-103.05
-108.45
-109.28
-104.15
-92.77
-76.02
-55.80
-34.46
-14.23
3.29
17.32
27.75
34.86
39.12
41.00
40.95
39.52
37.28
34.77
32.46
30.67
29.53
29.07
29.24
29.97
31.07
32.26
33.15
33.31
32.41
30.30
27.05
22.91
18.21
13.20
8.01
2.64
-3.04
-9.07
-15.43
-21.91
-28.24
-34.17
-39.56
-44.43
-48.99
-53.66
-59.00
-65.52
-73.49
-82.58
-91.65
-98.90
-102.24
-100.03
-91.61
-77.65
-59.90
-40.62
-21.89
-5.12
9.08
20.70
29.93
36.91
41.64
44.07
44.35
42.92
40.52
38.03
36.19
35.42
35.66
36.52
37.45
38.00
37.91
37.13
35.75
33.83
31.35
28.12
23.89
18.47
11.81
4.10
-4.26
-12.76
-20.95
-28.54
-35.48
-41.97
-48.36
-55.14
-62.76
-71.58
-81.63
-92.36
-102.56
-110.40
-113.86
-111.34
-102.22
-87.15
-67.82
-46.53
-25.38
-5.88
11.17
25.50
36.97
45.41
50.63
52.73
52.23
50.09
47.49
45.46
44.58
44.84
45.75
46.61
46.82
46.10
44.54
42.50
40.31
38.07
35.51
32.07
27.15
20.47
12.20
2.95
-6.49
-15.48
-23.73
-31.35
-38.72
-46.33
-54.69
-64.26
-75.25
-87.38
-99.61
-110.13
-116.69
-117.21
-110.51
-96.77
-77.49
-54.91
-31.44
-8.93
11.42
29.06
43.77
55.41
63.91
69.33
71.97
72.44
71.55
70.16
68.97
68.34
68.32
68.75
69.41
70.16
70.92
71.51
71.62
70.71
68.21
63.77
57.50
49.96
41.93
34.15
26.95
20.16
13.31
5.93
-2.24
-11.10
-20.24
-29.15
-37.41
-44.83
-51.65
-58.50
-66.27
-75.89
-87.86
-101.77
-116.04
-128.09
-134.93
-134.06
-124.36
-106.44
-82.45
-55.37
-28.09
-2.75
19.46
38.13
53.26
64.92
73.22
78.38
80.91
81.61
81.43
81.22
81.53
82.51
84.01
85.69
87.25
88.50
89.41
89.98
90.21
89.94
88.90
86.76
83.32
78.60
72.87
66.66
60.54
54.98
50.14
45.82
41.61
36.96
31.51
25.25
18.52
11.89
5.90
0.75
-3.81
-8.38
-13.67
-20.15
-27.82
-36.28
-44.87
-52.98
-60.29
-66.85
-73.12
-79.80
-87.73
-97.59
-109.66
-123.34
-136.96
-147.86
-153.00
-149.92
-137.60
-116.92
-90.38
-61.34
-32.90
-7.23
14.68
32.76
47.30
58.54
66.56
71.49
73.73
74.10
73.63
73.31
73.79
75.16
77.04
78.88
80.21
80.84
80.87
80.50
79.82
78.71
76.86
73.88
69.51
63.77
56.96
49.69
42.62
36.29
30.90
26.23
21.72
16.71
10.75
3.77
-3.83
-11.41
-18.37
-24.43
-29.73
-34.80
-40.35
-47.03
-55.36
-65.54
-77.36
-89.99
-101.83
-110.69
-114.19
-110.54
-99.12
-80.88
-58.04
-33.38
-9.42
12.10
30.38
45.23
56.69
64.74
69.39
70.81
69.58
66.60
62.95
59.59
57.15
55.85
55.57
55.96
56.67
57.39
57.85
57.83
57.08
55.35
52.47
48.38
43.27
37.48
31.44
25.52
19.79
14.09
8.05
1.40
-5.92
-13.59
-21.07
-27.82
-33.53
-38.32
-42.66
-47.32
-53.08
-60.54
-69.70
-79.86
-89.45
-96.28
-98.04
-93.06
-80.88
-62.58
-40.43
-17.21
4.54
23.22
38.14
49.32
57.02
61.50
62.97
61.83
58.82
54.92
51.21
48.47
47.04
46.82
47.37
48.19
48.86
49.07
48.67
47.58
45.77
43.24
40.02
36.14
31.65
26.58
20.97
14.89
8.43
1.73
-5.03
-11.62
-17.82
-23.44
-28.40
-32.84
-37.11
-41.80
-47.61
-55.07
-64.14
-73.97
-82.75
-88.19
-88.16
-81.42
-68.19
-50.09
-29.59
-9.25
8.96
23.95
35.43
43.47
48.28
50.03
49.04
45.92
41.60
37.22
33.76
31.81
31.40
32.09
33.21
34.10
34.35
33.87
32.76
31.22
29.42
27.35
24.82
21.53
17.20
11.70
5.25
-1.68
-8.40
-14.34
-19.26
-23.33
-27.13
-31.39
-36.77
-43.60
-51.76
-60.55
-68.75
-74.71
-76.72
-73.46
-64.46
-50.33
-32.68
-13.71
4.43
20.02
32.06
40.16
44.38
45.02
42.62
37.95
32.07
26.18
21.33
18.22
16.97
17.17
18.15
19.26
20.13
20.65
20.87
20.75
20.01
18.24
15.06
10.35
4.43
-2.12
-8.60
-14.52
-19.76
-24.55
-29.38
-34.81
-41.35
-49.17
-57.92
-66.59
-73.45
-76.48
-73.96
-65.17
-50.78
-32.69
-13.50
4.36
19.27
30.55
38.22
42.61
44.00
42.63
38.87
33.42
27.29
21.59
17.18
14.47
13.36
13.41
14.01
14.62
14.80
14.25
12.77
10.25
6.69
2.22
-2.98
-8.64
-14.54
-20.51
-26.55
-32.84
-39.76
-47.70
-56.81
-66.60
-75.80
-82.45
-84.39
-80.04
-69.04
-52.52
-32.79
-12.59
5.70
20.62
31.71
39.15
43.29
44.40
42.62
38.28
32.07
25.12
18.73
13.94
11.24
10.42
10.75
11.31
11.34
10.32
8.14
4.89
0.81
-3.80
-8.72
-13.79
-19.05
-24.68
-31.01
-38.41
-47.17
-57.22
-67.96
-78.08
-85.68
-88.75
-85.66
-75.85
-60.08
-40.32
-19.20
0.81
17.89
31.22
40.71
46.69
49.54
49.54
47.00
42.41
36.59
30.58
25.44
21.91
20.17
19.80
19.99
19.83
18.63
16.12
12.47
8.03
3.14
-2.01
-7.47
-13.41
-20.08
-27.69
-36.47
-46.61
-58.11
-70.49
-82.55
-92.32
-97.44
-95.91
-86.76
-70.56
-49.31
-25.82
-2.95
17.15
33.24
45.04
52.80
56.99
58.15
56.80
53.56
49.10
44.16
39.41
35.42
32.51
30.74
29.93
29.65
29.33
28.37
26.27
22.72
17.73
11.51
4.42
-3.24
-11.26
-19.58
-28.30
-37.59
-47.75
-59.05
-71.50
-84.53
-96.66
-105.64
-108.93
-104.55
-91.88
-72.10
-47.81
-22.21
1.86
22.61
39.39
52.27
61.57
67.56
70.33
70.17
67.74
64.04
60.17
56.96
54.72
53.24
51.99
50.51
48.62
46.44
44.21
41.99
39.49
36.10
31.14
24.24
15.54
5.71
-4.29
-13.62
-21.83
-29.09
-36.03
-43.54
-52.55
-63.65
-76.82
-91.16
-104.71
-114.72
-118.30
-113.36
-99.42
-77.91
-51.73
-24.29
1.55
24.15
42.98
58.25
70.26
79.11
84.76
87.35
87.41
85.91
83.96
82.52
82.06
82.55
83.59
84.67
85.45
85.81
85.81
85.54
84.91
83.71
81.67
78.61
74.56
69.80
64.71
59.62
54.78
50.27
46.07
42.15
38.44
34.86
31.34
27.78
24.14
20.49
16.96
13.74
10.90
8.38
5.88
2.98
-0.78
-5.58
-11.30
-17.53
-23.67
-29.24
-34.08
-38.49
-43.05
-48.36
-54.75
-62.04
-69.68
-76.93
-83.25
-88.54
-93.23
-98.02
-103.77
-111.26
-120.94
-132.74
-145.71
-157.83
-166.22
-167.69
-159.83
-141.94
-115.47
-83.70
-50.68
-19.95
6.28
27.32
43.53
55.56
63.90
68.82
70.66
70.15
68.40
66.70
66.08
66.96
69.14
71.94
74.69
76.96
78.69
80.08
81.32
82.40
83.06
82.84
81.30
78.27
73.93
68.77
63.49
58.72
54.80
51.73
49.20
46.75
43.97
40.63
36.73
32.45
28.13
24.06
20.41
17.15
14.05
10.73
6.88
2.36
-2.65
-7.78
-12.61
-16.94
-20.80
-24.58
-28.76
-33.74
-39.66
-46.29
-53.15
-59.68
-65.45
-70.38
-74.73
-79.11
-84.30
-91.04
-99.78
-110.39
-121.88
-132.38
-139.32
-140.12
-132.92
-117.38
-94.87
-68.14
-40.48
-14.74
7.34
25.16
38.96
49.20
56.23
60.23
61.49
60.60
58.57
56.54
55.46
55.79
57.40
59.76
62.23
64.35
65.91
66.92
67.44
67.50
66.99
65.75
63.62
60.54
56.55
51.84
46.73
41.54
36.57
32.03
27.93
24.16
20.52
16.84
13.03
9.08
5.04
0.98
-3.01
-6.89
-10.65
-14.33
-18.12
-22.28
-27.07
-32.62
-38.81
-45.28
-51.62
-57.51
-62.95
-68.22
-73.80
-80.25
-88.02
-97.23
-107.48
-117.64
-125.79
-129.67
-127.23
-117.41
-100.57
-78.48
-53.79
-29.15
-6.60
12.70
28.33
40.25
48.53
53.31
54.95
54.10
51.73
48.88
46.47
45.02
44.64
45.13
46.14
47.38
48.65
49.84
50.80
51.27
50.84
49.13
45.91
41.27
35.61
29.50
23.51
17.97
12.85
7.84
2.45
-3.71
-10.73
-18.37
-26.06
-33.16
-39.25
-44.32
-48.84
-53.64
-59.64
-67.55
-77.54
-89.00
-100.43
-109.66
-114.31
-112.43
-103.17
-87.16
-66.27
-43.15
-20.35
0.28
17.78
31.94
42.83
50.58
55.21
56.85
55.91
53.17
49.62
46.18
43.50
41.83
41.15
41.25
41.91
42.88
43.90
44.64
44.70
43.79
41.72
38.51
34.35
29.45
24.01
18.12
11.83
5.16
-1.81
-9.00
-16.27
-23.51
-30.59
-37.42
-44.01
-50.52
-57.41
-65.33
-74.89
-86.25
-98.66
-110.35
-118.79
-121.44
-116.59
-104.00
-84.98
-61.96
-37.68
-14.49
6.14
23.53
37.56
48.32
55.94
60.60
62.63
62.57
61.16
59.18
57.24
55.76
54.93
54.74
55.10
55.90
56.94
57.95
58.57
58.33
56.84
53.86
49.40
43.73
37.29
30.51
23.68
16.87
9.92
2.65
-5.07
-13.20
-21.52
-29.68
-37.35
-44.37
-50.84
-57.22
-64.21
-72.62
-82.94
-94.96
-107.45
-118.21
-124.53
-124.06
-115.58
-99.52
-77.75
-53.00
-27.99
-4.76
15.57
32.57
46.19
56.45
63.41
67.27
68.54
68.03
66.68
65.35
64.60
64.59
65.16
65.96
66.69
67.18
67.47
67.68
67.80
67.58
66.51
63.99
59.60
53.36
45.85
37.94
30.46
23.84
17.90
12.05
5.59
-1.92
-10.42
-19.40
-28.17
-36.12
-43.05
-49.12
-54.91
-61.20
-68.82
-78.45
-90.23
-103.54
-116.70
-127.19
-132.19
-129.47
-118.15
-99.11
-74.71
-48.01
-21.92
1.61
21.62
37.97
50.87
60.48
66.94
70.49
71.60
71.08
69.89
68.87
68.52
68.88
69.68
70.51
71.09
71.38
71.51
71.57
71.45
70.79
69.04
65.73
60.70
54.20
46.87
39.43
32.45
26.06
19.97
13.64
6.60
-1.30
-9.75
-18.13
-25.84
-32.52
-38.34
-43.89
-50.08
-57.85
-67.86
-80.21
-94.09
-107.67
-118.29
-123.07
-119.80
-107.73
-87.94
-63.06
-36.46
-11.16
10.82
28.69
42.52
52.79
59.90
64.13
65.75
65.22
63.24
60.70
58.44
57.06
56.80
57.55
58.97
60.61
62.08
63.01
63.16
62.31
60.33
57.18
52.96
47.81
41.93
35.47
28.48
20.99
13.04
4.80
-3.47
-11.43
-18.86
-25.67
-31.99
-38.10
-44.41
-51.46
-59.73
-69.50
-80.43
-91.32
-100.10
-104.29
-101.75
-91.53
-74.32
-52.19
-27.95
-4.26
16.94
34.65
48.45
58.23
63.96
65.79
64.26
60.39
55.55
51.11
47.99
46.48
46.25
46.65
47.03
47.07
46.73
46.20
45.55
44.65
43.07
40.27
35.84
29.71
22.25
14.07
5.91
-1.69
-8.50
-14.65
-20.58
-26.84
-33.98
-42.41
-52.17
-62.78
-73.00
-81.02
-84.71
-82.32
-73.09
-57.61
-37.73
-15.98
5.14
23.73
38.67
49.51
56.16
58.73
57.55
53.28
47.02
40.17
34.05
29.66
27.32
26.72
27.15
27.87
28.36
28.49
28.31
27.87
26.98
25.16
21.80
16.53
9.35
0.84
-8.12
-16.64
-24.17
-30.67
-36.60
-42.77
-50.01
-58.94
-69.57
-81.10
-91.81
-99.31
-101.11
-95.50
-82.15
-62.37
-38.75
-14.32
8.25
27.30
42.08
52.57
58.97
61.48
60.42
56.44
50.57
44.24
38.76
35.01
33.15
32.66
32.71
32.57
31.91
30.82
29.61
28.47
27.18
25.19
21.77
16.42
9.12
0.41
-8.80
-17.54
-25.22
-31.78
-37.74
-44.03
-51.63
-61.21
-72.77
-85.40
-97.24
-105.83
-108.64
-103.90
-91.14
-71.54
-47.50
-21.98
2.28
23.44
40.62
53.72
62.97
68.67
71.07
70.60
68.02
64.32
60.69
58.07
56.99
57.40
58.84
60.69
62.46
63.87
64.88
65.55
65.83
65.55
64.44
62.30
59.11
55.08
50.55
45.87
41.29
36.95
32.93
29.23
25.86
22.77
19.87
17.00
14.03
10.97
7.91
5.07
2.61
0.56
-1.29
-3.33
-5.97
-9.52
-14.03
-19.21
-24.59
-29.61
-33.92
-37.48
-40.66
-44.05
-48.28
-53.72
-60.30
-67.53
-74.73
-81.29
-86.95
-91.89
-96.68
-102.16
-109.17
-118.32
-129.64
-142.14
-153.74
-161.41
-161.99
-153.19
-134.50
-107.60
-75.82
-43.22
-13.30
11.79
31.36
45.81
55.97
62.57
66.17
67.26
66.46
64.67
62.86
61.86
62.13
63.63
65.95
68.51
70.86
72.70
74.05
74.97
75.52
75.60
74.98
73.38
70.65
66.83
62.25
57.39
52.76
48.70
45.32
42.40
39.55
36.40
32.76
28.73
24.61
20.80
17.61
15.05
12.87
10.58
7.66
3.75
-1.17
-6.79
-12.60
-18.00
-22.64
-26.50
-29.89
-33.36
-37.49
-42.65
-48.83
-55.70
-62.63
-69.02
-74.51
-79.10
-83.24
-87.73
-93.48
-101.27
-111.38
-123.18
-134.95
-144.06
-147.51
-142.91
-129.34
-107.77
-80.80
-51.83
-23.98
0.60
21.00
37.16
49.41
58.05
63.25
65.27
64.64
62.24
59.18
56.48
54.86
54.57
55.44
57.07
59.01
60.95
62.72
64.27
65.49
66.19
66.06
64.76
62.11
58.13
53.14
47.62
42.10
36.93
32.19
27.66
22.95
17.72
11.91
5.76
-0.23
-5.57
-9.99
-13.64
-17.02
-20.80
-25.50
-31.33
-38.07
-45.22
-52.24
-58.72
-64.59
-70.15
-75.97
-82.75
-91.16
-101.52
-113.48
-125.80
-136.35
-142.51
-141.89
-133.12
-116.37
-93.37
-66.89
-39.88
-14.77
6.96
24.78
38.71
48.97
55.79
59.45
60.39
59.34
57.27
55.15
53.74
53.36
53.90
54.94
56.05
56.99
57.77
58.54
59.29
59.72
59.23
57.13
52.99
46.86
39.34
31.32
23.70
17.02
11.29
6.00
0.47
-5.90
-13.32
-21.50
-29.84
-37.64
-44.46
-50.27
-55.50
-60.94
-67.51
-76.00
-86.78
-99.45
-112.62
-123.98
-130.74
-130.44
-121.73
-104.97
-82.09
-55.97
-29.57
-5.10
16.17
33.81
47.78
58.09
64.80
68.12
68.61
67.18
64.87
62.54
60.72
59.55
58.92
58.70
58.85
59.37
60.20
61.12
61.66
61.24
59.36
55.78
50.59
44.19
37.17
30.01
23.04
16.24
9.38
2.15
-5.62
-13.85
-22.21
-30.25
-37.55
-43.94
-49.64
-55.21
-61.56
-69.61
-80.00
-92.54
-105.93
-117.82
-125.21
-125.40
-116.89
-99.92
-76.50
-49.66
-22.52
2.49
24.04
41.72
55.62
65.92
72.76
76.28
76.91
75.43
72.90
70.39
68.72
68.16
68.55
69.44
70.36
71.11
71.69
72.27
72.90
73.36
73.07
71.30
67.48
61.48
53.76
45.21
36.81
29.29
22.74
16.73
10.47
3.32
-4.96
-14.06
-23.29
-31.95
-39.58
-46.21
-52.21
-58.21
-64.88
-72.91
-82.78
-94.67
-108.04
-121.38
-132.19
-137.53
-134.89
-123.19
-103.18
-77.31
-48.85
-20.89
4.40
25.94
43.49
57.14
67.01
73.20
75.98
75.97
74.13
71.58
69.33
68.00
67.78
68.42
69.51
70.66
71.64
72.38
72.84
72.80
71.78
69.23
64.72
58.29
50.47
42.17
34.30
27.35
21.24
15.34
8.91
1.44
-7.01
-15.92
-24.56
-32.32
-38.97
-44.81
-50.47
-56.82
-64.66
-74.51
-86.18
-98.49
-109.27
-115.78
-115.46
-106.84
-90.11
-67.16
-40.94
-14.55
9.54
29.88
45.99
57.96
66.03
70.48
71.64
69.99
66.37
61.82
57.50
54.30
52.78
52.96
54.37
56.30
57.97
58.82
58.55
57.17
54.82
51.63
47.60
42.63
36.59
29.45
21.35
12.64
3.76
-4.87
-12.92
-20.27
-26.91
-33.07
-39.08
-45.49
-52.93
-61.95
-72.70
-84.57
-95.97
-104.54
-107.69
-103.47
-91.27
-72.17
-48.55
-23.38
0.63
21.61
38.63
51.46
60.20
65.07
66.44
64.89
61.34
56.93
52.77
49.71
48.14
48.01
48.93
50.40
51.94
53.10
53.53
52.91
51.04
47.81
43.32
37.79
31.52
24.78
17.71
10.31
2.49
-5.77
-14.34
-22.96
-31.19
-38.66
-45.20
-50.96
-56.41
-62.31
-69.53
-78.73
-90.00
-102.51
-114.42
-123.13
-125.94
-120.86
-107.36
-86.61
-61.09
-33.90
-7.83
15.14
34.04
48.59
58.95
65.38
68.24
68.11
65.75
62.18
58.38
55.17
53.03
52.05
52.06
52.70
53.65
54.56
55.15
55.02
53.80
51.13
46.84
41.05
34.15
26.65
19.01
11.46
3.94
-3.72
-11.68
-19.86
-28.00
-35.69
-42.61
-48.65
-54.01
-59.23
-65.06
-72.37
-81.81
-93.39
-106.12
-117.99
-126.19
-127.92
-121.32
-106.15
-83.98
-57.68
-30.49
-5.11
16.88
34.99
49.38
60.39
68.23
72.95
74.77
74.28
72.41
70.26
68.74
68.29
68.84
70.01
71.34
72.51
73.42
74.09
74.51
74.55
73.93
72.34
69.56
65.60
60.72
55.36
50.05
45.20
41.01
37.43
34.25
31.22
28.20
25.13
22.06
19.05
16.11
13.22
10.35
7.57
4.97
2.59
0.33
-2.07
-4.97
-8.67
-13.26
-18.50
-23.96
-29.12
-33.70
-37.75
-41.67
-46.05
-51.32
-57.61
-64.66
-71.92
-78.86
-85.14
-90.79
-96.14
-101.77
-108.33
-116.48
-126.57
-138.34
-150.55
-160.86
-166.20
-163.63
-151.40
-129.71
-100.82
-68.38
-36.17
-7.17
17.09
36.36
51.10
61.92
69.25
73.47
75.07
74.83
73.70
72.60
72.11
72.41
73.32
74.52
75.76
76.86
77.76
78.34
78.30
77.20
74.58
70.15
63.98
56.42
48.02
39.29
30.53
21.80
12.99
4.03
-5.01
-13.88
-22.26
-29.93
-36.83
-43.18
-49.43
-56.18
-64.05
-73.47
-84.25
-95.39
-105.01
-110.72
-110.30
-102.43
-87.31
-66.60
-42.98
-19.34
2.00
19.68
33.29
43.00
49.18
52.19
52.39
50.26
46.47
41.85
37.25
33.27
30.21
28.14
26.94
26.46
26.52
26.80
26.81
25.91
23.54
19.35
13.44
6.26
-1.57
-9.47
-17.13
-24.58
-32.15
-40.38
-49.79
-60.62
-72.52
-84.30
-94.01
-99.30
-98.08
-89.33
-73.49
-52.40
-28.75
-5.35
15.65
33.00
46.24
55.43
60.80
62.70
61.61
58.29
53.64
48.63
44.01
40.14
37.00
34.34
31.95
29.75
27.83
26.31
25.09
23.72
21.48
17.63
11.72
3.86
-5.37
-15.08
-24.40
-32.84
-40.41
-47.65
-55.49
-64.89
-76.56
-90.39
-105.14
-118.45
-127.30
-128.80
-121.23
-104.69
-81.11
-53.65
-25.70
0.07
22.16
40.16
54.35
65.12
72.73
77.32
79.09
78.59
76.71
74.55
73.06
72.81
73.79
75.55
77.53
79.28
80.67
81.79
82.74
83.44
83.53
82.52
80.04
75.99
70.65
64.55
58.40
52.75
47.96
44.12
41.05
38.42
35.82
32.92
29.56
25.77
21.79
17.92
14.38
11.24
8.29
5.16
1.45
-3.10
-8.46
-14.37
-20.38
-26.07
-31.25
-36.11
-41.12
-46.85
-53.72
-61.77
-70.60
-79.52
-87.82
-95.08
-101.36
-107.23
-113.62
-121.61
-132.05
-145.21
-160.37
-175.56
-187.67
-193.17
-189.11
-174.13
-149.07
-116.81
-81.36
-46.62
-15.42
10.88
32.18
49.01
61.98
71.48
77.83
81.49
83.24
84.06
84.88
86.29
88.39
90.87
93.28
95.30
96.90
98.26
99.52
100.62
101.21
100.76
98.86
95.39
90.62
85.07
79.32
73.80
68.71
63.97
59.39
54.85
50.28
45.75
41.36
37.18
33.19
29.28
25.29
21.08
16.55
11.72
6.68
1.56
-3.60
-8.91
-14.69
-21.31
-28.99
-37.62
-46.70
-55.49
-63.31
-69.88
-75.50
-80.96
-87.38
-95.84
-106.91
-120.29
-134.50
-146.91
-154.30
-153.67
-143.32
-123.47
-96.32
-65.37
-34.29
-6.05
17.72
36.60
50.93
61.28
68.14
71.86
72.90
72.00
70.15
68.44
67.71
68.26
69.80
71.61
72.97
73.44
73.06
72.24
71.45
70.86
70.18
68.77
65.95
61.36
55.13
47.91
40.59
33.93
28.30
23.51
19.00
14.07
8.22
1.34
-6.20
-13.81
-20.89
-27.07
-32.39
-37.21
-42.17
-47.96
-55.23
-64.35
-75.17
-86.72
-97.19
-104.10
-105.00
-98.26
-83.75
-62.96
-38.53
-13.50
9.62
29.25
44.78
56.18
63.71
67.66
68.43
66.66
63.26
59.35
55.92
53.68
52.91
53.47
54.89
56.63
58.20
59.24
59.56
59.04
57.61
55.20
51.78
47.40
42.21
36.48
30.50
24.48
18.42
12.18
5.55
-1.52
-8.84
-15.99
-22.46
-27.93
-32.40
-36.24
-40.17
-45.02
-51.50
-59.86
-69.56
-79.18
-86.53
-89.25
-85.55
-74.85
-58.12
-37.53
-15.83
4.51
21.75
35.05
44.21
49.40
50.94
49.36
45.45
40.31
35.19
31.17
28.85
28.27
28.96
30.26
31.55
32.51
33.02
33.12
32.77
31.76
29.74
26.36
21.47
15.26
8.18
0.91
-5.94
-11.97
-17.10
-21.63
-26.11
-31.22
-37.52
-45.15
-53.58
-61.55
-67.23
-68.74
-64.75
-55.03
-40.56
-23.27
-5.47
10.83
24.28
34.20
40.41
43.01
42.23
38.53
32.64
25.55
18.39
12.18
7.60
4.92
4.00
4.39
5.47
6.58
7.18
6.92
5.58
3.15
-0.27
-4.50
-9.31
-14.44
-19.70
-25.02
-30.59
-36.80
-44.17
-52.99
-63.00
-73.10
-81.43
-85.80
-84.30
-76.05
-61.59
-42.74
-22.09
-2.30
14.64
27.66
36.55
41.64
43.47
42.53
39.30
34.33
28.36
22.27
16.95
13.13
11.15
10.90
11.81
12.98
13.50
12.69
10.31
6.57
1.97
-2.94
-7.85
-12.76
-18.00
-24.01
-31.22
-39.92
-50.11
-61.36
-72.62
-82.21
-88.06
-88.17
-81.33
-67.65
-48.66
-26.88
-5.17
14.15
29.66
40.93
48.16
51.86
52.53
50.69
46.91
41.85
36.24
30.78
26.01
22.31
19.89
18.73
18.57
18.94
19.18
18.62
16.70
13.18
8.15
1.94
-4.98
-12.17
-19.34
-26.40
-33.51
-41.05
-49.49
-59.17
-69.94
-80.86
-90.15
-95.46
-94.65
-86.37
-70.79
-49.51
-25.18
-0.69
21.54
40.06
54.27
64.23
70.29
72.89
72.59
70.14
66.47
62.54
59.19
56.90
55.82
55.80
56.55
57.74
59.12
60.45
61.51
62.11
62.02
61.12
59.34
56.70
53.35
49.56
45.63
41.83
38.34
35.18
32.23
29.30
26.24
23.04
19.80
16.71
13.94
11.56
9.47
7.43
5.18
2.59
-0.34
-3.42
-6.40
-9.07
-11.40
-13.58
-15.92
-18.70
-22.02
-25.71
-29.46
-32.95
-36.09
-39.10
-42.46
-46.72
-52.20
-58.84
-66.14
-73.41
-79.99
-85.56
-90.22
-94.48
-99.17
-105.24
-113.44
-123.98
-136.08
-147.76
-156.11
-157.98
-151.05
-134.67
-110.24
-80.78
-49.95
-20.97
4.07
24.35
39.93
51.25
58.75
62.82
63.96
62.94
60.77
58.53
57.13
57.00
58.15
60.18
62.58
64.92
66.97
68.69
70.13
71.27
71.92
71.78
70.54
68.10
64.57
60.29
55.70
51.19
47.01
43.26
39.94
36.93
34.08
31.20
28.12
24.78
21.30
17.93
14.96
12.57
10.70
9.05
7.21
4.78
1.56
-2.41
-6.88
-11.47
-15.86
-19.92
-23.73
-27.60
-31.94
-37.04
-42.95
-49.41
-55.94
-62.07
-67.53
-72.37
-76.96
-81.89
-87.81
-95.32
-104.71
-115.74
-127.32
-137.52
-143.76
-143.51
-135.15
-118.58
-95.38
-68.32
-40.56
-14.71
7.58
25.70
39.68
49.80
56.38
59.76
60.45
59.22
57.03
54.86
53.44
53.10
53.78
55.15
56.82
58.54
60.26
62.01
63.75
65.24
66.00
65.49
63.35
59.57
54.60
49.10
43.72
38.79
34.26
29.75
24.82
19.19
12.92
6.35
-0.01
-5.75
-10.66
-14.88
-18.83
-23.05
-28.02
-33.96
-40.70
-47.82
-54.78
-61.19
-67.04
-72.76
-79.08
-86.83
-96.68
-108.64
-121.90
-134.64
-144.31
-148.20
-144.25
-131.74
-111.63
-86.26
-58.64
-31.58
-7.11
13.67
30.49
43.44
52.75
58.69
61.63
62.19
61.15
59.34
57.50
56.11
55.41
55.43
56.12
57.35
58.98
60.78
62.39
63.37
63.18
61.41
57.84
52.61
46.11
38.86
31.35
23.87
16.49
9.04
1.24
-7.08
-15.90
-24.96
-33.83
-42.09
-49.53
-56.27
-62.77
-69.80
-78.21
-88.63
-101.03
-114.37
-126.53
-134.75
-136.33
-129.56
-114.37
-92.35
-66.21
-38.96
-13.01
10.09
29.66
45.53
57.64
66.04
70.88
72.62
72.03
70.12
67.83
65.87
64.58
63.99
63.92
64.20
64.75
65.54
66.52
67.43
67.79
66.94
64.33
59.74
53.46
46.17
38.63
31.43
24.65
17.93
10.75
2.66
-6.38
-15.94
-25.43
-34.29
-42.29
-49.58
-56.71
-64.41
-73.47
-84.49
-97.58
-112.03
-126.10
-137.12
-142.17
-138.94
-126.63
-106.25
-80.37
-52.18
-24.60
0.48
22.21
40.44
55.24
66.55
74.26
78.45
79.68
78.98
77.58
76.57
76.47
77.23
78.35
79.27
79.72
79.75
79.69
79.79
79.99
79.79
78.46
75.29
70.01
62.90
54.67
46.25
38.34
31.17
24.45
17.51
9.67
0.57
-9.59
-20.16
-30.27
-39.27
-46.98
-53.80
-60.56
-68.23
-77.62
-89.19
-102.77
-117.34
-131.00
-141.08
-144.78
-140.02
-126.15
-104.28
-77.02
-47.57
-18.87
7.16
29.62
48.36
63.49
75.07
83.10
87.71
89.41
89.08
87.76
86.45
85.74
85.73
86.19
86.73
87.13
87.39
87.69
88.16
88.71
88.95
88.31
86.28
82.57
77.31
71.01
64.33
57.93
52.17
47.08
42.35
37.52
32.19
26.19
19.72
13.24
7.20
1.85
-2.96
-7.78
-13.25
-19.84
-27.62
-36.17
-44.85
-53.04
-60.45
-67.27
-74.02
-81.47
-90.42
-101.45
-114.58
-128.98
-142.73
-153.02
-156.77
-151.60
-136.74
-113.35
-84.30
-53.14
-23.13
3.59
26.10
44.40
58.86
69.74
77.17
81.32
82.65
81.99
80.43
79.06
78.58
79.21
80.73
82.72
84.81
86.82
88.75
90.60
92.20
93.17
93.04
91.40
88.15
83.56
78.24
72.90
68.11
64.09
60.61
57.19
53.29
48.59
43.17
37.43
31.99
27.33
23.62
20.68
18.00
15.01
11.31
6.79
1.68
-3.60
-8.64
-13.25
-17.52
-21.82
-26.57
-32.07
-38.35
-45.13
-51.97
-58.44
-64.26
-69.43
-74.21
-79.13
-84.90
-92.22
-101.50
-112.43
-123.73
-133.16
-137.98
-135.76
-125.28
-106.97
-82.87
-55.97
-29.29
-5.15
15.21
31.46
43.82
52.63
58.22
60.94
61.27
59.95
57.91
56.03
54.93
54.83
55.59
56.80
58.07
59.14
59.95
60.56
60.98
61.11
60.72
59.54
57.35
54.07
49.74
44.50
38.57
32.32
26.10
20.30
15.15
10.66
6.55
2.38
-2.26
-7.62
-13.53
-19.60
-25.34
-30.39
-34.73
-38.64
-42.64
-47.29
-53.13
-60.42
-69.06
-78.32
-86.79
-92.58
-93.71
-88.78
-77.43
-60.66
-40.49
-19.39
0.43
17.48
31.03
40.98
47.50
50.86
51.42
49.74
46.55
42.71
39.05
36.17
34.34
33.56
33.66
34.38
35.50
36.83
38.16
39.23
39.73
39.32
37.76
34.98
31.18
26.73
22.13
17.73
13.68
9.86
6.01
1.83
-2.81
-7.89
-13.16
-18.34
-23.21
-27.69
-31.96
-36.39
-41.54
-47.86
-55.43
-63.68
-71.26
-76.35
-77.14
-72.47
-62.31
-47.72
-30.60
-13.03
3.20
16.90
27.42
34.55
38.26
38.75
36.40
31.96
26.43
20.97
16.53
13.71
12.60
12.83
13.81
14.99
16.00
16.74
17.24
17.47
17.29
16.37
14.40
11.16
6.73
1.44
-4.20
-9.69
-14.72
-19.25
-23.47
-27.77
-32.53
-38.06
-44.48
-51.56
-58.66
-64.59
-67.90
-67.14
-61.44
-50.81
-36.34
-19.84
-3.36
11.35
23.15
31.54
36.40
37.90
36.37
32.37
26.70
20.42
14.53
9.80
6.56
4.72
3.93
3.81
4.10
4.59
5.11
5.33
4.78
2.97
-0.36
-5.15
-10.98
-17.19
-23.24
-28.77
-33.83
-38.74
-44.01
-50.20
-57.68
-66.40
-75.64
-83.89
-89.14
-89.39
-83.37
-71.03
-53.74
-33.76
-13.63
4.54
19.48
30.67
38.05
41.80
42.19
39.66
34.88
28.81
22.54
17.04
13.00
10.69
9.94
10.27
10.98
11.41
11.05
9.57
6.88
3.06
-1.69
-7.12
-12.94
-18.93
-25.01
-31.29
-38.14
-46.13
-55.80
-67.23
-79.80
-91.89
-101.16
-105.09
-101.80
-90.73
-72.87
-50.53
-26.61
-3.81
15.96
31.70
43.22
50.69
54.46
54.97
52.77
48.60
43.33
37.88
32.94
28.96
26.07
24.18
23.09
22.55
22.22
21.63
20.25
17.52
13.03
6.73
-1.00
-9.47
-17.94
-25.89
-33.24
-40.48
-48.47
-58.15
-70.12
-84.17
-98.94
-112.02
-120.35
-121.15
-112.81
-95.53
-71.31
-43.32
-14.91
11.24
33.65
51.89
66.17
76.84
84.18
88.36
89.74
88.93
86.85
84.57
82.99
82.68
83.70
85.73
88.22
90.64
92.63
94.03
94.77
94.78
93.85
91.77
88.42
83.88
78.54
72.90
67.49
62.59
58.25
54.29
50.49
46.76
43.16
39.78
36.70
33.83
30.96
27.86
24.40
20.59
16.61
12.62
8.69
4.77
0.64
-3.90
-8.96
-14.44
-20.09
-25.56
-30.58
-35.04
-39.15
-43.36
-48.23
-54.23
-61.49
-69.69
-78.22
-86.35
-93.57
-99.78
-105.37
-111.13
-118.02
-126.96
-138.42
-152.05
-166.40
-178.80
-185.83
-184.26
-172.08
-149.37
-118.44
-83.17
-47.76
-15.62
11.36
32.78
49.16
61.39
70.15
75.97
79.30
80.77
81.18
81.36
81.95
83.22
85.04
87.05
88.92
90.50
91.85
93.18
94.56
95.80
96.46
96.02
94.05
90.49
85.65
80.12
74.56
69.45
64.98
61.02
57.33
53.65
49.89
46.18
42.70
39.62
36.91
34.36
31.66
28.57
25.00
21.08
17.07
13.20
9.53
5.92
2.10
-2.19
-6.98
-12.12
-17.23
-22.01
-26.36
-30.51
-34.90
-40.05
-46.23
-53.34
-60.96
-68.44
-75.25
-81.15
-86.27
-91.08
-96.30
-102.75
-111.15
-121.87
-134.48
-147.50
-158.36
-163.90
-161.31
-149.09
-127.72
-99.58
-68.22
-37.23
-9.31
14.15
32.92
47.42
58.16
65.57
70.00
71.96
72.21
71.66
71.21
71.42
72.40
73.91
75.55
77.07
78.45
79.89
81.58
83.51
85.34
86.51
86.42
84.67
81.20
76.35
70.68
64.85
59.40
54.64
50.54
46.82
43.11
39.09
34.66
30.01
25.47
21.38
17.95
15.13
12.61
9.96
6.80
2.87
-1.82
-7.00
-12.23
-17.14
-21.54
-25.58
-29.72
-34.53
-40.43
-47.46
-55.24
-63.11
-70.42
-76.80
-82.35
-87.60
-93.35
-100.44
-109.48
-120.62
-133.22
-145.71
-155.66
-160.28
-157.12
-145.02
-124.52
-97.87
-68.31
-39.13
-12.79
9.47
27.47
41.60
52.37
60.15
65.17
67.74
68.35
67.66
66.42
65.24
64.52
64.36
64.69
65.40
66.37
67.49
68.69
69.80
70.51
70.41
69.11
66.33
62.02
56.35
49.69
42.44
35.02
27.76
20.88
14.44
8.38
2.49
-3.54
-10.06
-17.24
-25.03
-33.11
-41.03
-48.38
-54.95
-60.84
-66.43
-72.28
-79.14
-87.68
-98.31
-110.76
-123.81
-135.15
-141.89
-141.35
-132.00
-114.14
-89.80
-62.08
-34.16
-8.45
13.74
32.00
46.39
57.09
64.28
68.28
69.67
69.27
68.03
66.69
65.71
65.13
64.78
64.41
63.92
63.42
63.10
63.08
63.26
63.21
62.25
59.72
55.20
48.76
40.93
32.57
24.52
17.28
10.89
4.87
-1.42
-8.53
-16.59
-25.27
-33.89
-41.83
-48.75
-54.82
-60.62
-67.00
-74.79
-84.59
-96.46
-109.65
-122.45
-132.40
-136.78
-133.47
-121.65
-102.26
-77.70
-51.07
-25.23
-2.15
17.37
33.34
46.10
55.91
62.87
67.06
68.77
68.58
67.29
65.71
64.40
63.59
63.21
63.06
63.00
63.04
63.20
63.44
63.47
62.82
60.95
57.47
52.31
45.86
38.77
31.71
25.14
19.03
12.97
6.35
-1.26
-9.91
-19.17
-28.30
-36.66
-43.96
-50.47
-56.93
-64.37
-73.70
-85.27
-98.67
-112.45
-124.32
-131.60
-131.92
-123.95
-107.91
-85.55
-59.61
-33.03
-8.19
13.54
31.64
46.10
57.04
64.55
68.81
70.27
69.76
68.36
67.05
66.42
66.51
67.04
67.64
68.15
68.69
69.43
70.38
71.19
71.24
69.85
66.62
61.59
55.23
48.23
41.18
34.33
27.60
20.61
13.01
4.63
-4.34
-13.47
-22.15
-29.93
-36.66
-42.57
-48.33
-54.81
-62.94
-73.29
-85.79
-99.34
-111.82
-120.40
-122.31
-115.76
-100.57
-78.36
-52.00
-24.76
0.65
22.60
40.51
54.42
64.55
71.01
73.97
73.81
71.35
67.75
64.14
61.41
59.90
59.56
60.05
61.08
62.40
63.81
65.05
65.72
65.32
63.46
59.97
55.01
49.02
42.54
35.99
29.61
23.34
16.91
10.01
2.47
-5.66
-14.04
-22.19
-29.68
-36.28
-42.19
-48.00
-54.58
-62.77
-73.01
-84.86
-96.80
-106.42
-110.93
-108.15
-97.22
-78.96
-55.63
-30.17
-5.32
17.00
35.78
50.70
61.71
68.78
72.01
71.73
68.71
64.14
59.32
55.35
52.83
51.87
52.11
53.02
54.08
54.87
55.15
54.78
53.62
51.57
48.55
44.58
39.74
34.20
28.12
21.61
14.70
7.42
-0.16
-7.88
-15.48
-22.66
-29.23
-35.20
-40.79
-46.51
-53.00
-60.90
-70.44
-81.16
-91.63
-99.58
-102.44
-98.19
-86.13
-67.24
-43.93
-19.24
4.01
23.94
39.71
51.24
58.77
62.59
63.03
60.56
56.02
50.51
45.30
41.43
39.43
39.31
40.58
42.57
44.64
46.32
47.36
47.60
46.90
45.13
42.22
38.26
33.47
28.15
22.54
16.67
10.44
3.69
-3.61
-11.26
-18.89
-26.11
-32.68
-38.65
-44.36
-50.42
-57.48
-66.03
-75.94
-86.27
-95.15
-100.20
-99.23
-90.97
-75.66
-55.03
-31.73
-8.52
12.44
29.90
43.40
52.87
58.38
60.12
58.47
54.23
48.64
43.11
38.86
36.57
36.22
37.21
38.64
39.69
39.91
39.26
38.02
36.51
34.88
33.01
30.54
27.04
22.28
16.27
9.32
1.95
-5.36
-12.25
-18.52
-24.17
-29.34
-34.28
-39.43
-45.36
-52.61
-61.45
-71.46
-81.35
-89.10
-92.43
-89.52
-79.71
-63.74
-43.54
-21.62
-0.42
18.29
33.48
44.74
52.05
55.57
55.60
52.74
47.88
42.19
36.91
33.09
31.25
31.40
33.00
35.24
37.31
38.64
39.01
38.47
37.26
35.54
33.29
30.30
26.22
20.81
14.05
6.29
-1.87
-9.75
-16.81
-22.88
-28.15
-33.06
-38.12
-43.79
-50.42
-58.15
-66.86
-75.90
-83.97
-89.25
-89.73
-83.97
-71.64
-53.80
-32.63
-10.76
9.44
26.35
39.19
47.72
52.04
52.41
49.36
43.79
36.94
30.24
24.88
21.54
20.24
20.46
21.47
22.64
23.66
24.50
25.24
25.81
25.87
24.87
22.26
17.77
11.59
4.31
-3.27
-10.37
-16.56
-21.84
-26.63
-31.63
-37.62
-45.17
-54.30
-64.25
-73.39
-79.59
-80.71
-75.35
-63.40
-46.13
-25.85
-5.18
13.61
29.06
40.49
47.76
51.08
50.77
47.39
41.76
34.98
28.20
22.41
18.16
15.59
14.44
14.33
14.87
15.74
16.64
17.19
16.97
15.48
12.35
7.52
1.25
-5.89
-13.23
-20.22
-26.63
-32.59
-38.58
-45.30
-53.42
-63.19
-74.15
-84.92
-93.32
-96.87
-93.57
-82.67
-64.96
-42.67
-18.74
3.98
23.34
38.18
48.17
53.53
54.80
52.67
47.99
41.76
35.00
28.66
23.44
19.72
17.53
16.62
16.52
16.72
16.70
16.04
14.48
11.85
8.07
3.15
-2.83
-9.66
-17.00
-24.48
-31.89
-39.32
-47.22
-56.29
-66.99
-79.01
-90.97
-100.44
-104.60
-101.16
-89.25
-69.86
-45.56
-19.69
4.56
24.98
40.52
51.13
57.27
59.58
58.71
55.31
50.15
44.09
38.02
32.71
28.65
26.05
24.77
24.44
24.56
24.53
23.78
21.87
18.51
13.67
7.52
0.40
-7.29
-15.21
-23.19
-31.25
-39.68
-48.99
-59.76
-72.23
-85.87
-99.03
-109.08
-113.04
-108.58
-94.98
-73.49
-47.06
-19.31
6.51
28.24
45.03
56.91
64.34
67.88
68.07
65.61
61.37
56.32
51.36
47.06
43.68
41.20
39.48
38.39
37.77
37.39
36.80
35.39
32.50
27.68
20.84
12.30
2.73
-7.11
-16.57
-25.35
-33.54
-41.66
-50.52
-61.01
-73.61
-87.93
-102.40
-114.31
-120.47
-118.23
-106.45
-86.05
-59.72
-31.05
-3.40
20.97
41.13
57.07
69.12
77.46
82.08
83.03
80.80
76.45
71.35
66.86
63.84
62.46
62.26
62.43
62.18
61.04
58.88
55.94
52.52
48.78
44.64
39.67
33.31
25.13
15.08
3.61
-8.37
-19.86
-30.09
-38.80
-46.31
-53.35
-60.76
-69.36
-79.74
-92.20
-106.46
-121.32
-134.52
-142.96
-143.54
-134.27
-115.09
-88.08
-56.84
-25.21
3.86
28.81
49.44
66.13
79.27
88.90
94.93
97.56
97.57
96.21
94.82
94.33
94.97
96.35
97.81
98.87
99.43
99.76
100.20
100.83
101.32
101.03
99.34
95.88
90.72
84.33
77.37
70.52
64.24
58.66
53.72
49.18
44.91
40.88
37.22
34.09
31.51
29.28
27.03
24.37
21.12
17.37
13.47
9.80
6.55
3.56
0.40
-3.44
-8.26
-14.00
-20.26
-26.45
-32.08
-37.00
-41.48
-46.07
-51.37
-57.76
-65.24
-73.41
-81.63
-89.22
-95.79
-101.37
-106.46
-111.98
-119.07
-128.73
-141.32
-155.99
-170.45
-181.20
-184.42
-177.25
-158.84
-130.78
-96.65
-60.77
-26.97
2.37
26.39
45.33
59.77
70.21
77.00
80.52
81.51
81.03
80.29
80.25
81.39
83.59
86.35
89.05
91.32
93.07
94.43
95.53
96.32
96.49
95.59
93.22
89.21
83.73
77.24
70.40
63.84
58.03
53.18
49.17
45.71
42.40
38.92
35.14
31.14
27.19
23.61
20.60
18.18
16.04
13.69
10.62
6.47
1.26
-4.68
-10.74
-16.37
-21.23
-25.38
-29.24
-33.38
-38.31
-44.31
-51.31
-58.95
-66.70
-74.03
-80.53
-86.10
-91.03
-95.98
-101.94
-109.86
-120.27
-132.66
-145.31
-155.35
-159.53
-155.20
-141.30
-118.79
-90.35
-59.55
-29.75
-3.34
18.58
35.88
49.01
58.45
64.62
67.92
68.87
68.21
66.85
65.64
65.16
65.60
66.76
68.28
69.83
71.24
72.48
73.53
74.22
74.19
72.99
70.32
66.16
60.87
55.04
49.22
43.69
38.39
32.95
27.00
20.38
13.29
6.22
-0.34
-6.11
-11.25
-16.19
-21.48
-27.43
-34.03
-40.96
-47.77
-54.14
-59.98
-65.49
-71.13
-77.55
-85.40
-95.17
-106.71
-118.89
-129.58
-135.92
-135.21
-125.88
-108.15
-84.03
-56.71
-29.50
-4.91
15.76
32.29
45.04
54.44
60.75
64.19
65.13
64.22
62.38
60.48
59.11
58.45
58.27
58.22
58.01
57.60
57.12
56.73
56.42
55.87
54.54
51.85
47.42
41.28
33.94
26.16
18.76
12.20
6.46
1.04
-4.83
-11.76
-19.94
-28.97
-38.11
-46.51
-53.62
-59.38
-64.26
-69.13
-75.03
-82.87
-93.14
-105.52
-118.66
-130.21
-137.24
-137.10
-128.29
-111.07
-87.40
-60.34
-33.06
-7.97
13.59
31.26
45.15
55.49
62.48
66.37
67.71
67.37
66.31
65.28
64.61
64.18
63.61
62.63
61.26
59.80
58.63
57.93
57.46
56.64
54.76
51.32
46.23
39.85
32.74
25.49
18.39
11.41
4.27
-3.40
-11.81
-20.85
-30.14
-39.15
-47.40
-54.68
-61.17
-67.40
-74.20
-82.48
-92.96
-105.68
-119.68
-132.76
-141.92
-144.07
-137.17
-121.02
-97.47
-69.73
-41.33
-14.99
7.85
26.92
42.54
55.00
64.28
70.25
73.00
73.06
71.44
69.26
67.46
66.49
66.28
66.50
66.80
67.02
67.23
67.58
68.10
68.58
68.49
67.20
64.16
59.18
52.51
44.77
36.76
29.16
22.19
15.64
8.93
1.49
-7.00
-16.38
-26.08
-35.37
-43.70
-50.88
-57.17
-63.21
-69.91
-78.22
-88.92
-102.20
-117.26
-132.03
-143.46
-148.24
-143.90
-129.79
-107.28
-79.41
-49.73
-21.28
4.04
25.53
43.17
57.14
67.50
74.26
77.69
78.44
77.49
75.92
74.58
73.92
73.89
74.15
74.29
74.06
73.46
72.71
71.98
71.24
70.15
68.15
64.66
59.43
52.66
44.96
37.08
29.66
22.86
16.41
9.76
2.41
-5.83
-14.72
-23.71
-32.16
-39.60
-46.01
-51.76
-57.61
-64.49
-73.21
-84.22
-97.21
-110.92
-123.10
-130.89
-131.60
-123.53
-106.59
-82.41
-53.86
-24.18
3.82
28.28
48.33
63.74
74.59
81.07
83.51
82.56
79.27
74.96
70.90
68.04
66.71
66.70
67.38
68.11
68.43
68.28
67.84
67.26
66.52
65.22
62.81
58.77
52.93
45.62
37.58
29.64
22.38
15.91
9.87
3.63
-3.31
-11.09
-19.39
-27.61
-35.19
-41.85
-47.73
-53.37
-59.55
-67.05
-76.46
-87.94
-100.77
-113.35
-123.18
-127.38
-123.55
-110.64
-89.40
-62.27
-32.68
-3.98
21.35
42.01
57.67
68.51
74.86
77.10
75.79
71.82
66.42
60.91
56.39
53.49
52.26
52.40
53.37
54.71
56.01
56.98
57.36
56.87
55.28
52.45
48.40
43.35
37.58
31.36
24.82
17.97
10.75
3.16
-4.72
-12.67
-20.45
-27.82
-34.63
-40.91
-46.96
-53.28
-60.62
-69.57
-80.18
-91.48
-101.42
-107.22
-106.21
-96.88
-79.47
-55.99
-29.67
-3.81
19.04
37.50
51.27
60.64
66.02
67.77
66.30
62.24
56.59
50.55
45.33
41.81
40.37
40.79
42.44
44.47
46.11
46.81
46.41
45.02
42.89
40.17
36.86
32.78
27.70
21.50
14.24
6.18
-2.31
-10.77
-18.80
-26.10
-32.55
-38.33
-43.86
-49.78
-56.75
-65.30
-75.46
-86.52
-96.88
-104.27
-106.31
-101.22
-88.56
-69.38
-46.02
-21.35
2.00
22.19
38.32
50.08
57.51
60.72
60.01
55.99
49.77
42.81
36.63
32.44
30.71
31.19
33.04
35.18
36.75
37.33
37.01
36.11
34.95
33.53
31.45
28.10
22.94
15.84
7.24
-2.02
-10.92
-18.74
-25.21
-30.68
-35.81
-41.41
-48.19
-56.51
-66.30
-76.87
-86.78
-94.05
-96.49
-92.39
-81.12
-63.50
-41.58
-18.11
4.30
23.75
39.23
50.43
57.40
60.28
59.37
55.25
48.98
41.98
35.66
31.07
28.56
27.78
27.98
28.39
28.52
28.23
27.64
26.89
25.92
24.46
22.04
18.28
13.02
6.52
-0.70
-7.93
-14.60
-20.50
-25.81
-31.12
-37.16
-44.60
-53.84
-64.68
-76.17
-86.54
-93.48
-94.69
-88.64
-75.16
-55.64
-32.62
-9.02
12.67
30.86
44.86
54.54
60.00
61.38
59.06
53.83
47.01
40.16
34.69
31.45
30.46
31.12
32.47
33.67
34.24
34.13
33.58
32.79
31.75
30.15
27.48
23.28
17.37
10.00
1.85
-6.28
-13.70
-20.12
-25.67
-30.87
-36.39
-42.93
-50.94
-60.52
-71.12
-81.39
-89.33
-92.59
-89.26
-78.57
-61.29
-39.57
-16.29
5.78
24.65
39.29
49.42
55.17
56.77
54.64
49.52
42.59
35.36
29.28
25.35
23.89
24.48
26.28
28.40
30.15
31.20
31.50
31.15
30.17
28.47
25.83
22.01
16.89
10.60
3.57
-3.60
-10.30
-16.15
-21.17
-25.77
-30.65
-36.52
-43.85
-52.66
-62.31
-71.51
-78.50
-81.36
-78.57
-69.51
-54.67
-35.64
-14.68
5.88
24.06
38.54
48.61
54.04
54.97
51.91
45.83
38.07
30.24
23.73
19.48
17.66
17.80
19.06
20.65
22.08
23.16
23.84
23.99
23.21
20.98
16.92
10.97
3.65
-4.23
-11.75
-18.32
-23.83
-28.62
-33.35
-38.75
-45.44
-53.68
-63.13
-72.62
-80.25
-83.74
-81.11
-71.42
-55.23
-34.51
-12.09
9.16
27.05
40.45
49.16
53.59
54.38
52.20
47.69
41.59
34.80
28.25
22.86
19.25
17.61
17.66
18.78
20.18
21.15
21.12
19.78
17.01
12.87
7.53
1.30
-5.49
-12.46
-19.40
-26.25
-33.26
-40.98
-50.08
-60.97
-73.36
-85.90
-96.23
-101.53
-99.42
-88.87
-70.66
-47.20
-21.81
2.30
22.79
38.45
49.13
55.19
57.31
56.18
52.54
47.25
41.22
35.34
30.37
26.83
24.91
24.49
25.14
26.20
26.92
26.61
24.82
21.44
16.63
10.72
4.06
-3.12
-10.72
-18.70
-27.10
-36.02
-45.70
-56.46
-68.43
-81.21
-93.46
-102.91
-106.86
-103.05
-90.61
-70.55
-45.56
-19.15
5.44
25.98
41.64
52.60
59.46
62.87
63.33
61.30
57.42
52.51
47.45
43.01
39.67
37.56
36.47
35.99
35.59
34.66
32.70
29.33
24.46
18.19
10.80
2.61
-6.08
-15.06
-24.17
-33.34
-42.69
-52.55
-63.40
-75.47
-88.29
-100.32
-109.12
-111.94
-106.71
-92.89
-71.74
-45.96
-18.79
6.89
29.15
47.08
60.43
69.30
73.94
74.78
72.57
68.41
63.51
58.89
55.12
52.25
50.00
48.01
46.10
44.29
42.66
41.09
39.15
36.14
31.37
24.45
15.48
5.10
-5.78
-16.29
-25.93
-34.71
-43.19
-52.26
-62.83
-75.37
-89.48
-103.63
-115.24
-121.28
-119.16
-107.71
-87.64
-61.49
-32.74
-4.78
20.02
40.59
56.88
69.24
77.96
83.06
84.61
83.00
79.15
74.43
70.18
67.34
66.05
65.78
65.60
64.65
62.48
59.17
55.19
51.08
47.07
42.93
38.01
31.58
23.18
12.89
1.38
-10.33
-21.22
-30.62
-38.41
-45.07
-51.48
-58.67
-67.62
-78.88
-92.26
-106.62
-119.77
-128.84
-131.00
-124.39
-108.73
-85.56
-57.73
-28.48
-0.60
24.21
45.26
62.44
75.81
85.29
90.78
92.44
91.02
87.75
84.11
81.34
80.07
80.13
80.86
81.43
81.31
80.39
78.93
77.27
75.57
73.57
70.75
66.52
60.50
52.74
43.78
34.46
25.63
17.81
10.99
4.64
-1.99
-9.56
-18.27
-27.78
-37.35
-46.20
-53.85
-60.30
-66.04
-71.87
-78.73
-87.46
-98.66
-112.29
-127.36
-141.71
-152.22
-155.59
-149.37
-132.92
-107.74
-77.03
-44.61
-13.76
13.48
36.38
54.98
69.54
80.14
86.77
89.65
89.43
87.24
84.34
81.83
80.35
80.04
80.61
81.62
82.61
83.25
83.32
82.67
81.22
78.86
75.52
71.14
65.71
59.31
52.10
44.37
36.48
28.75
21.49
14.82
8.69
2.85
-3.04
-9.32
-16.22
-23.70
-31.50
-39.24
-46.54
-53.25
-59.45
-65.47
-71.83
-79.14
-87.99
-98.78
-111.30
-124.43
-136.03
-143.22
-143.19
-134.16
-116.08
-90.77
-61.32
-31.17
-3.08
21.35
41.63
57.88
70.39
79.32
84.80
87.04
86.66
84.59
81.95
79.77
78.70
78.87
79.97
81.46
82.80
83.71
84.13
84.12
83.69
82.62
80.62
77.43
73.10
67.96
62.58
57.50
53.02
49.10
45.49
41.89
38.17
34.40
30.80
27.54
24.67
22.08
19.53
16.81
13.84
10.76
7.76
5.04
2.62
0.32
-2.18
-5.25
-9.11
-13.74
-18.91
-24.23
-29.32
-33.96
-38.23
-42.45
-47.04
-52.37
-58.48
-65.09
-71.72
-77.87
-83.22
-87.81
-91.98
-96.29
-101.44
-108.13
-116.75
-127.06
-137.73
-146.49
-150.43
-146.92
-134.62
-113.98
-87.23
-57.68
-28.61
-2.49
19.37
36.71
49.77
58.95
64.61
67.15
67.18
65.55
63.25
61.21
60.03
59.92
60.68
61.94
63.35
64.69
65.92
67.05
68.02
68.55
68.26
66.71
63.71
59.37
54.16
48.78
43.82
39.68
36.35
33.55
30.92
28.23
25.45
22.72
20.22
18.07
16.22
14.55
12.90
11.13
9.16
6.93
4.41
1.61
-1.39
-4.58
-7.92
-11.48
-15.35
-19.53
-23.95
-28.37
-32.49
-36.12
-39.28
-42.25
-45.44
-49.23
-53.75
-58.83
-64.06
-68.95
-73.19
-76.76
-80.01
-83.52
-87.99
-94.06
-102.09
-111.89
-122.42
-131.78
-137.50
-137.15
-129.14
-113.34
-91.19
-65.29
-38.58
-13.57
8.16
25.95
39.74
49.71
56.10
59.19
59.45
57.66
54.79
51.83
49.61
48.53
48.65
49.77
51.60
53.90
56.45
59.04
61.33
62.91
63.38
62.46
60.17
56.75
52.66
48.35
44.17
40.28
36.69
33.30
30.02
26.77
23.51
20.28
17.13
14.10
11.23
8.48
5.72
2.75
-0.65
-4.61
-9.08
-13.83
-18.48
-22.67
-26.28
-29.48
-32.72
-36.57
-41.41
-47.27
-53.82
-60.47
-66.64
-72.08
-76.89
-81.60
-86.98
-93.82
-102.57
-113.07
-124.22
-134.04
-140.02
-139.79
-131.86
-116.17
-94.21
-68.45
-41.70
-16.40
5.88
24.33
38.76
49.24
55.98
59.33
59.82
58.22
55.48
52.50
50.00
48.40
47.76
47.92
48.61
49.61
50.75
51.92
53.00
53.76
53.90
53.08
51.04
47.68
43.12
37.67
31.71
25.62
19.72
14.15
8.86
3.67
-1.76
-7.75
-14.44
-21.81
-29.58
-37.31
-44.59
-51.18
-57.11
-62.79
-68.91
-76.28
-85.52
-96.69
-108.99
-120.65
-129.25
-132.32
-128.11
-116.16
-97.45
-74.08
-48.65
-23.57
-0.64
19.06
35.02
47.13
55.54
60.57
62.75
62.79
61.39
59.24
56.89
54.78
53.23
52.49
52.62
53.49
54.70
55.76
56.14
55.47
53.62
50.63
46.68
41.91
36.40
30.16
23.19
15.53
7.33
-1.19
-9.76
-18.13
-26.13
-33.70
-40.96
-48.19
-55.85
-64.52
-74.76
-86.71
-99.76
-112.22
-121.54
-124.94
-120.33
-107.16
-86.70
-61.61
-35.08
-9.84
12.39
30.89
45.59
56.59
63.98
67.87
68.58
66.78
63.42
59.54
55.97
53.27
51.66
51.12
51.47
52.45
53.72
54.88
55.54
55.31
53.90
51.21
47.26
42.18
36.14
29.24
21.59
13.24
4.33
-4.91
-14.17
-23.12
-31.50
-39.24
-46.52
-53.87
-62.04
-71.71
-83.24
-96.09
-108.73
-118.73
-123.37
-120.48
-109.17
-90.21
-65.82
-39.02
-12.73
10.90
30.72
46.50
58.41
66.82
71.99
74.23
73.96
71.83
68.70
65.44
62.79
61.14
60.60
61.00
62.01
63.26
64.38
65.02
64.92
63.95
62.05
59.25
55.59
51.10
45.75
39.49
32.35
24.48
16.14
7.68
-0.56
-8.35
-15.60
-22.39
-29.00
-35.85
-43.56
-52.77
-63.83
-76.39
-89.08
-99.57
-105.01
-103.02
-92.48
-74.08
-50.09
-23.62
2.30
25.48
44.77
59.79
70.59
77.28
80.05
79.38
76.15
71.64
67.19
63.89
62.24
62.12
63.01
64.20
65.19
65.71
65.75
65.42
64.77
63.76
62.23
59.94
56.61
52.07
46.31
39.59
32.38
25.25
18.72
13.04
8.10
3.49
-1.34
-6.81
-13.11
-20.10
-27.37
-34.43
-40.87
-46.52
-51.54
-56.35
-61.60
-68.07
-76.43
-87.06
-99.56
-112.52
-123.46
-129.32
-127.35
-116.12
-96.20
-70.04
-41.27
-13.48
10.70
30.07
44.55
54.63
60.83
63.54
63.20
60.56
56.72
52.96
50.36
49.45
50.11
51.78
53.71
55.36
56.48
57.11
57.42
57.50
57.28
56.48
54.72
51.62
47.02
41.06
34.16
27.00
20.27
14.46
9.70
5.72
1.98
-2.11
-6.97
-12.69
-18.99
-25.35
-31.24
-36.31
-40.57
-44.33
-48.20
-52.88
-59.04
-67.03
-76.61
-86.70
-95.42
-100.36
-99.27
-90.83
-75.14
-53.87
-29.69
-5.51
16.32
34.39
48.21
57.84
63.56
65.74
64.87
61.70
57.29
52.79
49.18
47.01
46.33
46.80
47.87
49.04
49.96
50.44
50.40
49.75
48.39
46.23
43.20
39.33
34.74
29.65
24.28
18.79
13.23
7.53
1.53
-4.84
-11.51
-18.22
-24.55
-30.16
-34.96
-39.23
-43.61
-48.93
-55.84
-64.37
-73.63
-81.83
-86.63
-85.94
-78.57
-64.80
-46.31
-25.63
-5.34
12.59
27.07
37.76
44.70
48.02
47.95
44.97
39.92
34.02
28.56
24.51
22.29
21.72
22.22
23.16
24.07
24.76
25.23
25.56
25.71
25.45
24.49
22.46
19.17
14.61
9.05
2.94
-3.24
-9.04
-14.22
-18.83
-23.10
-27.50
-32.55
-38.67
-45.90
-53.72
-60.90
-65.68
-66.27
-61.36
-50.69
-35.20
-16.84
2.05
19.30
33.44
43.75
50.10
52.73
52.05
48.61
43.14
36.54
29.78
23.71
18.82
15.27
12.87
11.33
10.41
9.94
9.77
9.68
9.30
8.18
5.88
2.20
-2.80
-8.71
-15.01
-21.15
-26.85
-32.18
-37.57
-43.67
-51.05
-59.81
-69.37
-78.31
-84.65
-86.37
-82.01
-71.29
-55.19
-35.80
-15.70
2.71
17.69
28.47
35.02
37.79
37.40
34.44
29.47
23.08
15.95
8.87
2.62
-2.22
-5.39
-7.09
-7.85
-8.38
-9.37
-11.32
-14.43
-18.63
-23.71
-29.38
-35.38
-41.53
-47.73
-54.04
-60.65
-67.92
-76.16
-85.42
-95.13
-103.96
-109.87
-110.68
-104.71
-91.52
-72.19
-49.02
-24.89
-2.41
16.67
31.62
42.41
49.35
52.71
52.67
49.54
43.95
36.97
29.92
24.05
20.17
18.43
18.26
18.67
18.62
17.37
14.68
10.71
5.86
0.48
-5.26
-11.40
-18.12
-25.55
-33.87
-43.29
-54.12
-66.52
-80.12
-93.67
-104.87
-110.92
-109.32
-98.88
-80.27
-55.89
-29.10
-3.18
19.50
37.74
51.30
60.43
65.53
67.06
65.57
61.82
56.70
51.13
45.93
41.64
38.55
36.71
35.95
35.91
36.03
35.66
34.19
31.13
26.28
19.70
11.72
2.83
-6.42
-15.62
-24.62
-33.69
-43.50
-54.92
-68.50
-83.94
-99.66
-112.89
-120.24
-118.86
-107.42
-86.77
-59.69
-30.00
-1.33
23.82
44.39
60.44
72.42
80.65
85.18
86.08
83.87
79.65
74.89
70.94
68.53
67.62
67.50
67.31
66.36
64.44
61.77
58.73
55.67
52.59
49.18
44.81
38.82
30.80
20.76
9.29
-2.70
-14.17
-24.42
-33.27
-41.17
-48.98
-57.76
-68.44
-81.45
-96.47
-112.09
-125.90
-134.84
-135.93
-127.28
-108.76
-82.18
-50.80
-18.33
12.08
38.45
60.05
76.94
89.41
97.73
102.12
103.04
101.39
98.40
95.38
93.29
92.54
92.98
94.21
95.81
97.54
99.31
101.04
102.56
103.52
103.49
102.13
99.30
95.11
89.89
84.07
78.12
72.39
67.02
62.02
57.24
52.55
47.89
43.33
39.03
35.15
31.76
28.82
26.18
23.59
20.85
17.81
14.48
10.98
7.49
4.08
0.68
-2.99
-7.27
-12.36
-18.14
-24.24
-30.12
-35.43
-40.11
-44.53
-49.27
-54.83
-61.42
-68.84
-76.60
-84.07
-90.78
-96.57
-101.65
-106.64
-112.48
-120.22
-130.67
-143.84
-158.41
-171.61
-179.66
-178.83
-166.77
-143.48
-111.43
-74.85
-38.30
-5.36
21.99
43.37
59.28
70.55
77.80
81.57
82.50
81.47
79.57
77.88
77.15
77.66
79.24
81.42
83.75
85.94
87.86
89.44
90.63
91.23
90.92
89.45
86.64
82.55
77.41
71.63
65.66
59.96
54.90
50.66
47.23
44.33
41.56
38.56
35.07
31.11
26.90
22.80
19.06
15.79
12.87
10.09
7.14
3.80
-0.04
-4.36
-9.04
-13.83
-18.46
-22.78
-26.75
-30.57
-34.60
-39.24
-44.70
-50.93
-57.60
-64.16
-70.11
-75.19
-79.51
-83.61
-88.35
-94.66
-103.22
-114.02
-126.03
-137.10
-144.30
-144.68
-136.23
-118.63
-93.50
-63.96
-33.63
-5.69
17.88
36.36
49.95
59.20
64.69
66.91
66.40
63.92
60.43
56.93
54.24
52.84
52.82
54.00
56.02
58.51
61.11
63.50
65.41
66.53
66.64
65.57
63.26
59.83
55.55
50.74
45.70
40.68
35.77
30.97
26.29
21.74
17.38
13.25
9.37
5.65
1.99
-1.73
-5.56
-9.47
-13.33
-17.03
-20.45
-23.61
-26.66
-29.87
-33.60
-38.12
-43.51
-49.55
-55.80
-61.78
-67.13
-71.84
-76.29
-81.21
-87.52
-95.94
-106.67
-118.87
-130.57
-138.93
-140.99
-134.61
-119.28
-96.36
-68.67
-39.66
-12.34
11.29
30.34
44.78
54.94
61.19
63.91
63.61
61.06
57.27
53.30
49.98
47.82
46.88
46.95
47.71
48.88
50.24
51.62
52.83
53.60
53.69
52.86
50.92
47.77
43.41
38.01
31.86
25.36
18.90
12.76
6.99
1.41
-4.29
-10.43
-17.18
-24.46
-31.98
-39.29
-45.96
-51.73
-56.63
-61.03
-65.57
-71.04
-78.22
-87.61
-99.12
-111.83
-123.85
-132.61
-135.39
-130.21
-116.53
-95.52
-69.73
-42.26
-15.89
7.51
27.11
42.75
54.56
62.69
67.28
68.68
67.54
64.86
61.68
58.87
56.86
55.67
55.02
54.56
54.13
53.77
53.67
53.98
54.65
55.30
55.32
54.01
50.90
45.87
39.27
31.83
24.33
17.42
11.28
5.64
-0.07
-6.46
-13.88
-22.21
-30.95
-39.36
-46.86
-53.22
-58.70
-64.02
-70.14
-77.98
-88.07
-100.18
-113.07
-124.54
-131.89
-132.65
-125.39
-110.23
-88.77
-63.59
-37.42
-12.46
9.90
29.01
44.61
56.57
64.83
69.53
71.10
70.31
68.16
65.60
63.40
61.94
61.23
61.04
61.04
61.00
60.87
60.75
60.77
60.85
60.66
59.62
57.11
52.72
46.51
39.06
31.25
23.87
17.38
11.66
6.09
-0.07
-7.37
-15.82
-24.94
-33.94
-42.10
-49.04
-54.94
-60.42
-66.41
-73.91
-83.64
-95.74
-109.43
-122.86
-133.29
-137.81
-134.13
-121.48
-100.87
-74.88
-46.77
-19.54
4.74
25.15
41.58
54.30
63.54
69.44
72.25
72.45
70.93
68.75
66.88
65.84
65.63
65.93
66.31
66.58
66.82
67.24
67.95
68.67
68.82
67.65
64.63
59.69
53.24
46.05
38.94
32.41
26.57
21.06
15.28
8.67
0.98
-7.61
-16.52
-25.02
-32.54
-38.89
-44.38
-49.75
-55.98
-63.96
-74.17
-86.29
-99.07
-110.35
-117.45
-117.94
-110.31
-94.58
-72.34
-46.27
-19.40
5.71
27.34
44.70
57.65
66.38
71.24
72.69
71.43
68.40
64.67
61.20
58.69
57.43
57.33
58.07
59.24
60.52
61.68
62.57
63.03
62.82
61.57
58.97
54.83
49.29
42.80
35.99
29.47
23.53
18.04
12.60
6.76
0.24
-6.83
-14.04
-20.87
-26.93
-32.19
-36.98
-42.00
-48.12
-56.06
-66.05
-77.48
-88.71
-97.34
-100.78
-97.15
-85.86
-67.94
-45.68
-21.87
0.95
21.08
37.64
50.37
59.28
64.48
66.22
65.01
61.75
57.57
53.60
50.66
49.04
48.57
48.85
49.47
50.19
50.99
51.92
52.90
53.65
53.67
52.47
49.73
45.48
40.09
34.11
28.07
22.30
16.87
11.53
6.04
0.12
-6.23
-12.83
-19.31
-25.23
-30.35
-34.66
-38.55
-42.64
-47.69
-54.34
-62.71
-72.26
-81.64
-88.94
-92.07
-89.49
-80.56
-65.86
-46.98
-26.08
-5.35
13.47
29.25
41.39
49.71
54.32
55.58
54.05
50.62
46.26
42.00
38.67
36.75
36.30
37.01
38.34
39.74
40.84
41.51
41.82
41.87
41.65
40.94
39.40
36.74
32.91
28.15
22.98
17.88
13.18
8.87
4.69
0.32
-4.47
-9.63
-14.94
-20.05
-24.70
-28.79
-32.42
-35.88
-39.61
-44.12
-49.84
-56.95
-65.12
-73.35
-80.05
-83.37
-81.75
-74.45
-61.88
-45.45
-27.23
-9.28
6.77
19.95
29.94
36.77
40.67
41.90
40.82
38.00
34.17
30.17
26.78
24.52
23.54
23.70
24.67
26.09
27.63
29.07
30.21
30.83
30.75
29.78
27.88
25.13
21.74
18.01
14.24
10.57
7.02
3.46
-0.28
-4.30
-8.59
-13.01
-17.38
-21.50
-25.34
-29.03
-32.90
-37.42
-42.95
-49.59
-56.81
-63.50
-68.09
-69.00
-65.15
-56.36
-43.42
-27.92
-11.76
3.31
16.01
25.72
32.30
35.93
36.94
35.69
32.69
28.58
24.18
20.32
17.66
16.50
16.73
17.95
19.62
21.26
22.52
23.25
23.33
22.75
21.51
19.66
17.24
14.35
11.02
7.28
3.18
-1.24
-5.87
-10.56
-15.16
-19.53
-23.60
-27.38
-31.02
-34.83
-39.19
-44.40
-50.43
-56.73
-62.25
-65.57
-65.31
-60.64
-51.56
-38.96
-24.33
-9.38
4.43
16.10
25.09
31.25
34.62
35.37
33.87
30.66
26.46
22.10
18.31
15.64
14.29
14.20
15.00
16.24
17.47
18.37
18.79
18.71
18.19
17.20
15.66
13.38
10.22
6.11
1.19
-4.21
-9.67
-14.80
-19.39
-23.48
-27.30
-31.19
-35.46
-40.39
-46.05
-52.31
-58.70
-64.37
-68.11
-68.58
-64.75
-56.31
-43.88
-28.89
-13.19
1.53
14.07
23.81
30.55
34.33
35.28
33.70
30.17
25.56
20.91
17.16
14.88
14.15
14.61
15.67
16.80
17.69
18.25
18.53
18.61
18.39
17.66
16.07
13.36
9.46
4.56
-0.95
-6.59
-11.94
-16.78
-21.13
-25.14
-29.13
-33.44
-38.45
-44.41
-51.25
-58.43
-64.84
-68.97
-69.34
-64.96
-55.78
-42.67
-27.21
-11.18
3.83
16.70
26.77
33.68
37.31
37.79
35.49
31.14
25.71
20.26
15.72
12.66
11.16
10.95
11.54
12.43
13.31
14.06
14.56
14.68
14.11
12.48
9.56
5.39
0.38
-4.87
-9.82
-14.24
-18.25
-22.28
-26.89
-32.63
-39.76
-48.08
-56.86
-64.77
-70.15
-71.35
-67.26
-57.69
-43.54
-26.53
-8.78
7.76
21.68
32.16
38.98
42.22
42.22
39.41
34.45
28.15
21.49
15.41
10.68
7.69
6.48
6.71
7.86
9.35
10.61
11.14
10.59
8.78
5.75
1.71
-3.00
-8.07
-13.31
-18.71
-24.42
-30.73
-37.94
-46.39
-56.10
-66.70
-77.11
-85.60
-90.13
-88.89
-81.01
-66.90
-48.22
-27.39
-6.88
11.36
26.17
37.07
44.06
47.38
47.43
44.82
40.39
35.12
30.00
25.77
22.91
21.53
21.48
22.44
23.94
25.39
26.16
25.70
23.65
19.91
14.64
8.19
0.96
-6.71
-14.57
-22.49
-30.52
-38.89
-48.00
-58.19
-69.48
-81.20
-91.82
-99.11
-100.74
-95.01
-81.62
-61.80
-38.06
-13.40
9.49
28.78
43.63
53.93
59.96
62.16
61.10
57.58
52.58
47.21
42.40
38.75
36.43
35.27
34.91
35.05
35.41
35.75
35.77
35.02
33.05
29.44
24.05
16.99
8.69
-0.28
-9.36
-18.19
-26.75
-35.41
-44.83
-55.61
-67.91
-81.05
-93.36
-102.47
-105.84
-101.71
-89.64
-70.75
-47.36
-22.28
1.94
23.53
41.52
55.53
65.46
71.32
73.30
71.94
68.25
63.57
59.28
56.39
55.24
55.49
56.36
57.03
57.00
56.17
54.82
53.23
51.45
49.14
45.66
40.37
32.92
23.45
12.60
1.36
-9.29
-18.72
-26.85
-34.12
-41.46
-49.88
-60.20
-72.61
-86.47
-100.07
-110.93
-116.30
-114.00
-103.14
-84.51
-60.40
-33.90
-8.02
15.09
34.34
49.59
61.18
69.54
74.98
77.79
78.37
77.32
75.34
73.17
71.38
70.30
69.98
70.31
71.07
71.99
72.76
72.99
72.29
70.24
66.63
61.53
55.22
48.20
40.87
33.47
25.97
18.20
10.03
1.50
-7.18
-15.71
-23.83
-31.44
-38.61
-45.71
-53.31
-62.17
-72.93
-85.66
-99.42
-112.12
-120.86
-122.77
-116.00
-100.45
-77.89
-51.30
-23.94
1.60
23.91
42.59
57.79
69.74
78.49
84.03
86.58
86.73
85.48
83.91
82.94
82.93
83.82
85.15
86.45
87.39
87.88
87.98
87.82
87.41
86.63
85.23
82.95
79.63
75.35
70.37
65.14
60.09
55.45
51.25
47.34
43.52
39.74
36.09
32.71
29.70
26.98
24.34
21.55
18.51
15.26
11.92
8.54
5.05
1.32
-2.73
-7.02
-11.27
-15.21
-18.69
-21.88
-25.12
-28.88
-33.40
-38.66
-44.35
-50.01
-55.22
-59.77
-63.71
-67.37
-71.34
-76.28
-82.86
-91.46
-101.89
-113.14
-123.28
-129.87
-130.51
-123.71
-109.40
-89.05
-65.23
-40.81
-18.17
1.26
17.02
29.35
38.69
45.44
49.89
52.27
52.99
52.58
51.67
50.84
50.48
50.75
51.56
52.76
54.16
55.70
57.26
58.74
59.88
60.33
59.76
57.98
55.06
51.30
47.14
42.97
39.09
35.57
32.35
29.28
26.21
23.06
19.79
16.41
12.98
9.54
6.18
2.98
0.02
-2.71
-5.31
-8.00
-11.09
-14.86
-19.49
-24.89
-30.72
-36.54
-41.93
-46.71
-51.00
-55.12
-59.53
-64.70
-70.95
-78.34
-86.49
-94.44
-100.67
-103.36
-100.92
-92.53
-78.56
-60.49
-40.56
-21.02
-3.60
10.80
22.04
30.42
36.34
40.11
42.00
42.27
41.39
39.93
38.48
37.47
37.12
37.38
38.06
38.99
40.03
41.08
42.03
42.73
43.01
42.73
41.85
40.35
38.28
35.71
32.73
29.51
26.24
23.09
20.13
17.29
14.45
11.54
8.62
5.87
3.51
1.59
-0.03
-1.71
-3.78
-6.43
-9.55
-12.84
-15.98
-18.84
-21.55
-24.45
-27.91
-32.06
-36.81
-41.81
-46.66
-51.07
-54.99
-58.56
-62.10
-66.04
-70.79
-76.66
-83.62
-91.05
-97.72
-101.93
-101.96
-96.65
-85.87
-70.58
-52.58
-33.95
-16.45
-1.22
11.29
21.10
28.45
33.56
36.63
37.91
37.77
36.78
35.48
34.39
33.81
33.80
34.26
35.01
35.89
36.75
37.47
37.92
38.00
37.60
36.63
34.98
32.52
29.19
25.07
20.36
15.44
10.70
6.42
2.67
-0.71
-4.01
-7.56
-11.62
-16.28
-21.48
-27.02
-32.61
-37.99
-42.94
-47.39
-51.50
-55.61
-60.23
-65.93
-73.03
-81.44
-90.32
-98.19
-103.14
-103.40
-97.89
-86.61
-70.69
-51.99
-32.62
-14.40
1.46
14.37
24.26
31.32
35.96
38.57
39.62
39.51
38.60
37.24
35.75
34.39
33.47
33.21
33.71
34.90
36.50
38.09
39.18
39.28
38.09
35.52
31.68
26.89
21.53
15.93
10.26
4.55
-1.29
-7.33
-13.54
-19.76
-25.73
-31.25
-36.27
-40.93
-45.60
-50.85
-57.24
-65.12
-74.34
-84.03
-92.60
-98.09
-98.68
-93.33
-82.08
-66.07
-47.14
-27.29
-8.21
8.93
23.45
35.01
43.52
49.02
51.82
52.43
51.58
50.07
48.62
47.66
47.32
47.43
47.74
48.03
48.29
48.60
49.06
49.58
49.82
49.29
47.48
44.15
39.39
33.63
27.48
21.44
15.73
10.25
4.64
-1.48
-8.29
-15.68
-23.29
-30.65
-37.44
-43.61
-49.43
-55.41
-62.20
-70.44
-80.48
-92.16
-104.47
-115.55
-122.96
-124.39
-118.35
-104.80
-85.16
-61.88
-37.69
-14.82
5.35
22.23
35.79
46.14
53.42
57.84
59.78
59.85
58.87
57.62
56.67
56.26
56.32
56.65
57.07
57.52
58.05
58.71
59.39
59.76
59.33
57.56
54.16
49.21
43.10
36.47
29.89
23.66
17.67
11.55
4.83
-2.74
-11.05
-19.64
-27.88
-35.27
-41.68
-47.43
-53.22
-59.97
-68.49
-79.14
-91.55
-104.40
-115.57
-122.52
-122.96
-115.57
-100.52
-79.44
-54.93
-29.81
-6.34
14.10
31.03
44.53
54.85
62.17
66.64
68.53
68.34
66.88
65.07
63.73
63.33
63.93
65.22
66.76
68.15
69.21
69.91
70.31
70.39
69.94
68.59
66.00
61.97
56.55
50.04
42.99
35.95
29.39
23.50
18.15
12.95
7.37
1.02
-6.16
-13.86
-21.51
-28.57
-34.79
-40.34
-45.76
-51.80
-59.22
-68.59
-79.94
-92.61
-105.03
-114.89
-119.58
-117.02
-106.33
-88.25
-65.01
-39.53
-14.62
7.74
26.51
41.48
52.75
60.55
65.06
66.67
65.99
63.98
61.64
59.73
58.68
58.44
58.64
58.94
59.07
59.02
58.96
58.96
58.94
58.57
57.32
54.72
50.61
45.17
38.89
32.38
26.14
20.36
14.91
9.45
3.67
-2.57
-9.15
-15.77
-22.04
-27.68
-32.68
-37.29
-42.11
-47.89
-55.35
-64.79
-75.76
-86.87
-95.89
-100.31
-98.05
-88.24
-71.54
-50.04
-26.56
-3.84
16.15
32.44
44.91
53.83
59.50
62.15
62.02
59.63
55.78
51.47
47.69
45.05
43.79
43.70
44.44
45.62
46.92
48.00
48.54
48.20
46.75
44.11
40.42
35.93
30.87
25.37
19.42
12.93
5.90
-1.53
-9.08
-16.41
-23.19
-29.30
-34.82
-40.07
-45.56
-51.87
-59.46
-68.36
-77.90
-86.65
-92.62
-93.74
-88.62
-77.02
-60.03
-39.69
-18.41
1.73
19.31
33.58
44.25
51.23
54.53
54.42
51.49
46.75
41.47
36.87
33.86
32.77
33.38
35.04
36.94
38.37
38.93
38.54
37.39
35.74
33.71
31.19
27.84
23.35
17.55
10.63
3.04
-4.56
-11.64
-17.87
-23.31
-28.36
-33.56
-39.52
-46.68
-55.16
-64.60
-74.00
-81.81
-86.20
-85.53
-78.87
-66.40
-49.43
-30.00
-10.33
7.76
23.06
35.02
43.38
48.11
49.28
47.25
42.79
37.06
31.44
27.12
24.76
24.36
25.36
26.92
28.35
29.31
29.80
30.00
29.94
29.37
27.80
24.78
20.14
14.14
7.41
0.62
-5.71
-11.43
-16.72
-21.96
-27.60
-34.06
-41.62
-50.27
-59.46
-67.94
-73.94
-75.59
-71.49
-61.35
-46.09
-27.67
-8.41
9.54
24.76
36.49
44.52
48.89
49.75
47.48
42.78
36.78
30.82
26.14
23.48
22.91
23.93
25.75
27.67
29.25
30.32
30.82
30.61
29.39
26.85
22.76
17.20
10.56
3.44
-3.52
-9.89
-15.56
-20.79
-26.14
-32.24
-39.60
-48.29
-57.75
-66.63
-73.13
-75.28
-71.64
-61.79
-46.58
-27.91
-8.16
10.39
26.12
38.09
46.00
49.90
50.11
47.18
41.92
35.40
28.81
23.18
19.22
17.17
16.89
17.99
19.91
22.10
23.99
25.12
25.08
23.63
20.66
16.32
10.90
4.85
-1.39
-7.49
-13.37
-19.24
-25.53
-32.76
-41.24
-50.80
-60.55
-68.90
-73.90
-73.73
-67.33
-54.82
-37.56
-17.79
1.96
19.51
33.47
43.26
48.90
50.72
49.19
44.84
38.43
30.93
23.48
17.16
12.73
10.47
10.10
10.92
12.11
12.88
12.72
11.42
9.06
5.82
2.00
-2.22
-6.73
-11.53
-16.77
-22.68
-29.57
-37.79
-47.40
-57.97
-68.35
-76.68
-80.84
-79.02
-70.43
-55.61
-36.41
-15.40
4.85
22.36
35.97
45.28
50.29
51.21
48.38
42.38
34.19
25.17
16.85
10.52
6.90
5.92
6.78
8.30
9.32
9.09
7.43
4.58
1.05
-2.75
-6.65
-10.78
-15.52
-21.37
-28.81
-38.16
-49.29
-61.48
-73.23
-82.43
-86.78
-84.53
-75.03
-59.10
-38.82
-16.92
4.07
22.29
36.81
47.38
54.03
56.86
56.04
52.00
45.61
38.13
31.03
25.50
22.20
21.02
21.24
21.80
21.71
20.33
17.49
13.46
8.73
3.68
-1.59
-7.31
-13.92
-21.93
-31.70
-43.33
-56.48
-70.26
-83.13
-92.96
-97.48
-94.85
-84.42
-67.01
-44.82
-20.77
2.36
22.59
38.93
51.18
59.47
63.97
64.85
62.41
57.33
50.70
43.77
37.75
33.39
30.90
29.89
29.67
29.42
28.44
26.31
22.92
18.37
12.90
6.75
0.04
-7.20
-15.10
-23.89
-33.89
-45.40
-58.46
-72.53
-86.20
-97.30
-103.26
-101.95
-92.41
-75.27
-52.59
-27.32
-2.33
20.14
38.83
53.32
63.67
70.14
73.08
72.94
70.35
66.15
61.19
56.26
51.89
48.33
45.64
43.71
42.39
41.41
40.38
38.77
35.97
31.54
25.24
17.25
8.12
-1.47
-10.89
-19.81
-28.33
-36.98
-46.54
-57.79
-70.93
-85.23
-98.87
-109.11
-113.11
-108.81
-95.78
-75.42
-50.49
-24.28
0.48
22.11
40.03
54.27
64.97
72.07
75.46
75.30
72.28
67.62
62.69
58.59
55.73
53.80
52.06
49.78
46.59
42.60
38.24
33.84
29.47
24.71
18.84
11.16
1.28
-10.64
-23.94
-37.68
-50.98
-63.33
-74.79
-85.92
-97.60
-110.77
-126.12
-143.81
-163.19
-182.77
-200.19
-212.71
-217.88
-214.20
-201.65
-181.63
-156.51
-128.62
-99.66
-70.35
-40.75
-10.70
19.65
49.64
78.33
104.80
128.48
149.23
167.12
182.28
194.65
204.03
210.21
213.15
213.05
210.35
205.64
199.49
192.36
184.48
175.97
166.81
156.95
146.47
135.55
124.52
113.74
103.58
94.18
85.52
77.35
69.39
61.34
53.03
44.47
35.82
27.36
19.38
12.08
5.43
-0.83
-7.12
-13.91
-21.46
-29.72
-38.35
-46.80
-54.57
-61.40
-67.33
-72.78
-78.44
-85.06
-93.40
-103.82
-115.96
-128.42
-138.81
-144.16
-141.86
-130.59
-110.93
-85.27
-57.06
-29.64
-5.36
14.79
30.88
43.41
52.80
59.21
62.73
63.77
63.16
62.03
61.39
61.80
63.18
65.04
66.80
68.13
69.09
69.94
70.89
71.87
72.52
72.35
70.96
68.22
64.30
59.56
54.40
49.19
44.18
39.53
35.26
31.35
27.69
24.19
20.76
17.31
13.79
10.15
6.35
2.43
-1.47
-5.25
-8.90
-12.55
-16.51
-21.07
-26.40
-32.36
-38.58
-44.52
-49.72
-54.00
-57.51
-60.77
-64.55
-69.67
-76.73
-85.76
-95.97
-105.68
-112.60
-114.40
-109.45
-97.36
-79.20
-57.17
-33.98
-12.05
6.90
22.12
33.59
41.66
46.81
49.47
50.08
49.12
47.19
44.93
42.88
41.35
40.43
40.05
40.05
40.32
40.81
41.46
42.18
42.79
43.02
42.59
41.25
38.91
35.61
31.62
27.37
23.34
19.88
17.14
14.91
12.80
10.34
7.27
3.64
-0.22
-3.92
-7.19
-10.06
-12.82
-15.88
-19.60
-24.11
-29.28
-34.72
-39.97
-44.62
-48.50
-51.73
-54.77
-58.30
-62.99
-69.23
-76.83
-84.89
-91.77
-95.56
-94.54
-87.75
-75.38
-58.73
-39.84
-20.91
-3.75
10.55
21.62
29.56
34.69
37.41
38.11
37.24
35.36
33.07
30.96
29.44
28.68
28.58
28.89
29.33
29.73
30.09
30.48
30.92
31.23
31.06
29.95
27.51
23.64
18.62
13.02
7.56
2.77
-1.12
-4.32
-7.28
-10.54
-14.45
-19.00
-23.87
-28.52
-32.55
-35.81
-38.49
-41.06
-44.09
-48.12
-53.47
-60.11
-67.56
-74.88
-80.69
-83.44
-81.83
-75.19
-63.77
-48.70
-31.73
-14.74
0.74
13.73
23.84
31.12
35.83
38.29
38.84
37.79
35.54
32.63
29.63
27.10
25.43
24.77
24.98
25.73
26.61
27.29
27.53
27.22
26.26
24.59
22.17
18.97
15.10
10.72
6.00
1.08
-4.00
-9.21
-14.58
-20.04
-25.46
-30.62
-35.36
-39.61
-43.55
-47.53
-52.07
-57.65
-64.38
-71.78
-78.68
-83.43
-84.34
-80.23
-70.85
-57.02
-40.31
-22.62
-5.67
9.31
21.64
31.05
37.54
41.20
42.29
41.24
38.66
35.28
31.80
28.76
26.46
24.97
24.27
24.33
25.13
26.58
28.38
30.04
30.95
30.58
28.73
25.59
21.61
17.30
12.95
8.59
4.01
-1.01
-6.58
-12.63
-18.94
-25.22
-31.20
-36.72
-41.78
-46.53
-51.33
-56.75
-63.35
-71.46
-80.75
-90.10
-97.65
-101.27
-99.20
-90.72
-76.44
-58.14
-38.16
-18.72
-1.35
13.29
25.14
34.41
41.27
45.74
47.87
47.88
46.26
43.70
40.90
38.39
36.46
35.22
34.66
34.75
35.47
36.70
38.20
39.50
40.02
39.25
36.92
33.11
28.26
22.96
17.70
12.61
7.53
2.11
-3.94
-10.60
-17.56
-24.37
-30.65
-36.39
-41.89
-47.73
-54.53
-62.73
-72.42
-83.11
-93.66
-102.36
-107.25
-106.54
-99.26
-85.56
-66.78
-45.11
-22.95
-2.34
15.41
29.76
40.78
48.74
53.98
56.81
57.63
56.92
55.31
53.43
51.75
50.56
49.89
49.69
49.84
50.25
50.78
51.23
51.27
50.54
48.72
45.69
41.58
36.68
31.35
25.89
20.38
14.79
8.92
2.57
-4.35
-11.78
-19.47
-27.07
-34.24
-40.84
-47.02
-53.30
-60.36
-68.81
-78.82
-89.80
-100.20
-107.89
-110.63
-106.79
-95.95
-79.09
-58.25
-35.93
-14.36
4.88
21.03
33.84
43.43
49.95
53.66
54.97
54.44
52.81
50.82
49.11
48.08
47.91
48.56
49.77
51.20
52.41
53.03
52.83
51.71
49.74
47.04
43.68
39.64
34.83
29.14
22.58
15.30
7.64
-0.00
-7.27
-13.97
-20.11
-25.93
-31.80
-38.13
-45.38
-53.89
-63.80
-74.76
-85.79
-95.21
-100.93
-101.01
-94.28
-80.80
-61.97
-40.15
-17.89
2.62
20.07
33.95
44.34
51.53
55.77
57.33
56.57
54.14
50.92
47.87
45.72
44.75
44.79
45.32
45.83
45.96
45.60
44.84
43.83
42.61
41.03
38.80
35.49
30.72
24.33
16.55
7.90
-0.82
-8.90
-15.97
-22.06
-27.64
-33.31
-39.69
-47.16
-55.88
-65.58
-75.51
-84.36
-90.36
-91.65
-86.88
-75.66
-58.88
-38.50
-16.98
3.37
20.90
34.86
45.15
52.00
55.72
56.59
54.95
51.43
46.94
42.61
39.44
38.00
38.27
39.68
41.48
43.02
43.94
44.24
44.07
43.54
42.57
40.80
37.76
33.09
26.71
18.96
10.52
2.21
-5.31
-11.79
-17.48
-22.98
-29.04
-36.26
-44.93
-54.95
-65.72
-76.10
-84.48
-88.97
-87.88
-80.27
-66.38
-47.67
-26.48
-5.33
13.68
29.26
40.87
48.47
52.24
52.49
49.76
44.87
38.95
33.21
28.69
25.93
24.96
25.35
26.51
27.90
29.20
30.33
31.26
31.93
32.03
31.11
28.68
24.45
18.52
11.37
3.74
-3.61
-10.19
-15.91
-21.07
-26.26
-32.18
-39.40
-48.20
-58.31
-68.77
-77.94
-83.77
-84.37
-78.63
-66.64
-49.68
-29.87
-9.55
9.34
25.53
38.33
47.43
52.78
54.48
52.98
49.10
43.93
38.66
34.22
31.14
29.47
28.97
29.19
29.81
30.58
31.36
31.96
32.05
31.16
28.82
24.74
19.01
12.09
4.70
-2.49
-9.10
-15.16
-21.02
-27.19
-34.19
-42.30
-51.46
-61.05
-69.82
-76.02
-77.74
-73.55
-63.03
-47.05
-27.53
-6.94
12.42
28.91
41.64
50.36
55.09
56.04
53.62
48.59
42.08
35.37
29.64
25.59
23.34
22.57
22.75
23.40
24.17
24.86
25.22
24.90
23.51
20.77
16.63
11.38
5.43
-0.76
-6.92
-13.01
-19.19
-25.80
-33.22
-41.75
-51.36
-61.48
-70.86
-77.64
-79.80
-75.79
-65.16
-48.85
-28.95
-8.12
11.24
27.42
39.61
47.61
51.62
52.01
49.33
44.38
38.20
31.92
26.54
22.69
20.52
19.82
20.14
20.98
21.89
22.49
22.44
21.55
19.69
16.85
13.12
8.62
3.48
-2.15
-8.14
-14.40
-20.89
-27.76
-35.33
-43.98
-53.76
-64.02
-73.24
-79.20
-79.72
-73.39
-60.30
-41.99
-21.05
-0.26
18.20
33.08
43.99
51.01
54.36
54.24
51.01
45.36
38.36
31.30
25.40
21.45
19.69
19.82
21.19
23.09
24.89
26.12
26.44
25.64
23.65
20.54
16.56
12.04
7.28
2.48
-2.35
-7.44
-13.21
-20.10
-28.40
-37.91
-47.73
-56.27
-61.53
-61.67
-55.62
-43.60
-27.09
-8.43
9.81
25.49
37.26
44.63
47.71
46.98
43.07
36.68
28.66
19.95
11.63
4.69
-0.11
-2.47
-2.55
-0.96
1.49
3.94
5.71
6.31
5.52
3.34
-0.05
-4.35
-9.24
-14.43
-19.84
-25.62
-32.10
-39.68
-48.52
-58.22
-67.67
-75.07
-78.35
-75.78
-66.58
-51.32
-31.87
-10.81
9.26
26.35
39.36
47.96
52.31
52.77
49.80
44.03
36.38
28.05
20.32
14.29
10.57
9.12
9.33
10.23
10.86
10.48
8.81
5.98
2.38
-1.59
-5.73
-10.09
-14.95
-20.70
-27.77
-36.47
-46.95
-58.85
-71.19
-82.16
-89.49
-90.99
-85.27
-72.37
-53.72
-31.82
-9.40
11.26
28.68
42.15
51.45
56.56
57.58
54.88
49.16
41.59
33.57
26.50
21.39
18.60
17.83
18.20
18.69
18.37
16.75
13.84
9.98
5.62
1.04
-3.76
-9.05
-15.24
-22.79
-32.05
-43.17
-55.89
-69.31
-81.76
-90.96
-94.54
-90.71
-79.02
-60.61
-37.93
-14.04
8.29
27.24
42.06
52.80
59.80
63.33
63.59
60.86
55.76
49.33
42.78
37.22
33.34
31.23
30.48
30.40
30.24
29.40
27.49
24.38
20.12
14.89
8.89
2.29
-4.83
-12.53
-20.89
-30.09
-40.44
-52.23
-65.48
-79.56
-92.92
-103.16
-107.62
-104.22
-92.32
-73.03
-48.92
-23.12
1.57
23.28
41.16
55.00
64.83
70.69
72.78
71.63
68.24
63.89
59.76
56.61
54.57
53.29
52.19
50.85
49.20
47.47
46.00
44.86
43.72
41.77
38.08
31.97
23.39
12.96
1.76
-9.08
-18.81
-27.28
-34.94
-42.62
-51.25
-61.55
-73.77
-87.32
-100.64
-111.26
-116.33
-113.50
-101.75
-81.89
-56.35
-28.43
-1.24
23.04
43.39
59.69
72.12
80.85
85.92
87.58
86.49
83.79
80.87
78.83
78.23
78.96
80.43
81.98
83.16
83.91
84.38
84.77
85.07
85.02
84.17
82.16
78.84
74.39
69.26
64.05
59.30
55.28
51.94
48.93
45.73
41.92
37.36
32.30
27.25
22.73
19.04
16.02
13.16
9.81
5.50
0.15
-5.85
-11.89
-17.39
-22.09
-26.19
-30.27
-35.00
-40.89
-48.03
-56.03
-64.18
-71.75
-78.29
-83.76
-88.63
-93.69
-99.90
-108.08
-118.57
-130.83
-143.20
-153.06
-157.33
-153.42
-140.20
-118.44
-90.67
-60.39
-30.99
-4.91
16.73
33.84
46.85
56.26
62.39
65.52
66.15
65.11
63.49
62.35
62.34
63.55
65.58
67.79
69.66
70.99
71.90
72.56
73.03
73.10
72.32
70.36
67.04
62.53
57.28
51.80
46.49
41.56
36.97
32.53
27.99
23.23
18.28
13.37
8.79
4.79
1.43
-1.49
-4.40
-7.85
-12.30
-17.90
-24.43
-31.38
-38.12
-44.24
-49.67
-54.73
-60.03
-66.28
-74.08
-83.62
-94.42
-105.21
-114.02
-118.54
-116.77
-107.69
-91.69
-70.54
-46.85
-23.31
-2.01
15.90
30.13
40.89
48.60
53.59
56.24
56.92
56.23
54.86
53.45
52.47
52.10
52.21
52.53
52.79
52.84
52.68
52.40
52.08
51.63
50.80
49.22
46.48
42.38
36.96
30.60
23.89
17.49
11.84
7.03
2.76
-1.51
-6.28
-11.77
-17.81
-23.93
-29.53
-34.24
-38.04
-41.30
-44.64
-48.72
-54.11
-61.14
-69.79
-79.52
-89.11
-96.77
-100.43
-98.35
-89.74
-75.09
-56.12
-35.22
-14.76
3.54
18.77
30.68
39.33
44.92
47.65
47.93
46.40
43.89
41.27
39.12
37.75
37.11
37.00
37.25
37.76
38.54
39.50
40.46
41.05
40.81
39.33
36.43
32.17
26.94
21.28
15.70
10.47
5.56
0.72
-4.37
-9.91
-15.86
-21.99
-27.95
-33.48
-38.50
-43.17
-47.85
-53.09
-59.42
-67.18
-76.22
-85.58
-93.62
-98.26
-97.59
-90.53
-77.30
-59.34
-38.91
-18.38
0.43
16.46
29.39
39.25
46.18
50.26
51.62
50.66
48.11
44.92
42.04
40.11
39.35
39.50
40.11
40.73
41.11
41.25
41.27
41.24
41.05
40.42
38.91
36.19
32.14
26.97
21.16
15.33
9.96
5.24
0.99
-3.21
-7.87
-13.29
-19.49
-26.16
-32.85
-39.11
-44.68
-49.58
-54.10
-58.75
-64.15
-70.91
-79.34
-89.20
-99.46
-108.30
-113.48
-112.97
-105.61
-91.59
-72.43
-50.48
-28.26
-7.77
9.83
24.14
35.26
43.42
48.83
51.70
52.37
51.42
49.59
47.67
46.29
45.73
45.94
46.60
47.34
47.91
48.26
48.48
48.69
48.82
48.55
47.37
44.80
40.62
34.99
28.47
21.79
15.62
10.28
5.68
1.38
-3.16
-8.36
-14.36
-20.98
-27.80
-34.36
-40.29
-45.48
-50.08
-54.53
-59.49
-65.73
-73.83
-83.94
-95.37
-106.53
-115.11
-118.69
-115.49
-105.00
-88.15
-67.00
-44.08
-21.65
-1.34
16.00
30.02
40.64
47.98
52.28
54.00
53.84
52.58
50.97
49.61
48.86
48.86
49.52
50.61
51.91
53.18
54.30
55.21
55.81
55.94
55.31
53.58
50.49
45.99
40.36
34.14
27.94
22.21
17.05
12.17
7.02
1.09
-5.86
-13.65
-21.75
-29.53
-36.53
-42.64
-48.17
-53.70
-59.93
-67.46
-76.62
-87.12
-97.92
-107.20
-112.68
-112.25
-104.68
-90.12
-70.15
-47.29
-24.21
-3.04
14.98
29.51
40.66
48.70
53.81
56.20
56.25
54.60
52.09
49.59
47.75
46.86
46.89
47.55
48.52
49.51
50.30
50.68
50.42
49.33
47.26
44.25
40.45
36.08
31.30
26.13
20.51
14.31
7.51
0.24
-7.24
-14.55
-21.36
-27.52
-33.11
-38.47
-44.10
-50.58
-58.36
-67.49
-77.43
-86.92
-94.09
-96.86
-93.57
-83.56
-67.48
-47.15
-25.07
-3.66
15.24
30.62
42.18
50.04
54.51
55.96
54.89
51.96
48.05
44.04
40.72
38.60
37.81
38.23
39.49
41.13
42.71
43.87
44.35
44.03
42.84
40.74
37.68
33.67
28.72
22.92
16.45
9.51
2.32
-4.88
-11.87
-18.48
-24.61
-30.32
-35.85
-41.62
-48.13
-55.75
-64.54
-73.91
-82.61
-88.80
-90.54
-86.30
-75.56
-59.09
-38.78
-17.06
3.72
21.86
36.48
47.31
54.42
57.96
58.13
55.36
50.44
44.54
38.96
34.82
32.70
32.57
33.88
35.85
37.77
39.17
39.87
39.86
39.19
37.89
35.86
32.96
28.99
23.84
17.52
10.25
2.48
-5.21
-12.27
-18.42
-23.76
-28.70
-33.81
-39.63
-46.56
-54.77
-64.00
-73.53
-82.01
-87.59
-88.31
-82.73
-70.53
-52.78
-31.65
-9.78
10.53
27.79
41.31
50.97
56.80
58.87
57.47
53.26
47.40
41.32
36.32
33.14
31.85
31.93
32.60
33.24
33.55
33.58
33.50
33.40
33.14
32.37
30.62
27.48
22.75
16.59
9.41
1.85
-5.51
-12.24
-18.20
-23.64
-29.09
-35.23
-42.66
-51.62
-61.69
-71.66
-79.60
-83.38
-81.23
-72.38
-57.42
-38.11
-16.88
3.87
22.26
37.13
47.98
54.69
57.38
56.41
52.42
46.40
39.57
33.14
28.07
24.79
23.28
23.13
23.80
24.85
26.00
27.11
28.00
28.40
27.88
26.03
22.62
17.78
11.92
5.64
-0.53
-6.28
-11.58
-16.71
-22.13
-28.41
-36.00
-44.98
-54.74
-63.89
-70.38
-72.17
-67.83
-57.19
-41.39
-22.60
-3.25
14.54
29.38
40.57
47.87
51.33
51.12
47.67
41.76
34.50
27.13
20.78
16.24
13.76
13.15
13.85
15.22
16.62
17.61
17.86
17.19
15.51
12.74
8.88
4.06
-1.51
-7.48
-13.50
-19.37
-25.17
-31.34
-38.49
-47.03
-56.69
-66.24
-73.64
-76.57
-73.27
-63.27
-47.63
-28.59
-8.85
9.24
24.24
35.56
43.16
47.17
47.65
44.72
38.83
30.86
22.14
14.10
7.90
4.09
2.56
2.68
3.59
4.51
4.87
4.41
3.05
0.88
-1.98
-5.38
-9.27
-13.64
-18.53
-24.07
-30.48
-38.04
-46.97
-57.08
-67.53
-76.69
-82.42
-82.67
-76.14
-62.96
-44.60
-23.57
-2.57
16.14
31.22
42.13
48.92
51.83
51.18
47.36
41.03
33.17
25.10
18.18
13.45
11.34
11.47
12.88
14.36
14.90
14.02
11.77
8.55
4.78
0.69
-3.74
-8.70
-14.36
-20.89
-28.47
-37.28
-47.49
-58.90
-70.58
-80.76
-87.11
-87.34
-80.13
-65.62
-45.57
-22.75
-0.11
19.98
36.21
48.16
55.95
59.89
60.30
57.58
52.38
45.61
38.48
32.10
27.33
24.55
23.62
23.95
24.72
25.10
24.47
22.51
19.24
14.88
9.73
4.03
-2.15
-8.84
-16.13
-24.19
-33.25
-43.56
-55.29
-68.08
-80.77
-91.37
-97.35
-96.46
-87.58
-71.19
-49.37
-25.13
-1.53
19.12
35.58
47.59
55.42
59.55
60.48
58.73
54.96
49.97
44.66
39.83
36.07
33.62
32.41
32.10
32.21
32.17
31.44
29.58
26.33
21.65
15.68
8.71
1.06
-6.98
-15.20
-23.54
-32.13
-41.31
-51.51
-62.95
-75.31
-87.31
-96.84
-101.36
-98.79
-88.28
-70.66
-48.11
-23.57
0.29
21.52
39.10
52.66
62.11
67.46
68.94
67.15
63.13
58.20
53.58
50.08
47.92
46.78
46.17
45.64
44.99
44.25
43.50
42.65
41.33
38.95
34.85
28.66
20.43
10.76
0.59
-9.11
-17.72
-25.20
-32.11
-39.42
-48.15
-58.98
-71.83
-85.68
-98.56
-107.89
-111.11
-106.46
-93.58
-73.76
-49.52
-23.83
0.71
22.43
40.60
55.16
66.22
73.87
78.25
79.71
78.99
77.09
75.01
73.45
72.71
72.68
73.07
73.62
74.14
74.53
74.67
74.39
73.50
71.80
69.25
65.86
61.69
56.80
51.23
45.03
38.28
31.18
23.95
16.87
10.14
3.84
-2.11
-7.95
-13.99
-20.52
-27.62
-35.15
-42.74
-49.98
-56.60
-62.60
-68.31
-74.39
-81.58
-90.65
-101.96
-115.14
-128.77
-140.38
-146.88
-145.51
-134.73
-114.91
-88.33
-58.39
-28.60
-1.60
21.24
39.67
54.01
64.71
72.07
76.35
77.97
77.65
76.34
75.05
74.52
75.06
76.53
78.51
80.51
82.18
83.38
84.17
84.64
84.76
84.31
82.95
80.36
76.43
71.40
65.76
60.16
55.08
50.71
46.91
43.29
39.54
35.50
31.31
27.26
23.63
20.50
17.65
14.72
11.28
7.08
2.11
-3.36
-8.91
-14.17
-18.95
-23.35
-27.74
-32.57
-38.18
-44.68
-51.82
-59.11
-66.01
-72.12
-77.40
-82.22
-87.25
-93.35
-101.27
-111.29
-122.90
-134.57
-143.92
-148.17
-144.97
-133.23
-113.49
-87.92
-59.54
-31.42
-5.86
15.92
33.58
47.31
57.31
63.86
67.22
67.95
66.97
65.34
64.09
63.86
64.78
66.52
68.59
70.51
72.06
73.24
74.17
74.87
75.17
74.73
73.14
70.15
65.75
60.29
54.38
48.66
43.65
39.49
36.04
32.97
29.97
26.95
24.02
21.39
19.14
17.17
15.14
12.67
9.48
5.58
1.18
-3.30
-7.54
-11.36
-14.87
-18.36
-22.22
-26.76
-32.08
-37.99
-44.11
-49.93
-55.09
-59.50
-63.41
-67.42
-72.24
-78.51
-86.53
-96.00
-105.89
-114.49
-119.69
-119.53
-112.78
-99.41
-80.68
-58.76
-36.12
-14.83
3.77
19.16
31.33
40.42
46.60
50.03
51.05
50.28
48.49
46.54
45.10
44.57
44.97
46.13
47.80
49.78
51.90
54.02
55.93
57.31
57.78
57.06
55.06
51.96
48.16
44.15
40.33
36.91
33.90
31.19
28.65
26.21
23.86
21.60
19.47
17.53
15.85
14.50
13.44
12.52
11.55
10.34
8.81
7.09
5.39
3.95
2.87
2.09
1.37
0.45
-0.86
-2.59
-4.65
-6.81
-8.85
-10.59
-11.96
-13.02
-13.92
-14.86
-16.05
-17.60
-19.50
-21.65
-23.86
-25.96
-27.94
-29.90
-32.11
-34.86
-38.30
-42.38
-46.80
-51.14
-54.98
-58.13
-60.67
-63.00
-65.71
-69.47
-74.74
-81.52
-89.15
-96.19
-100.80
-101.14
-96.06
-85.47
-70.45
-52.83
-34.65
-17.55
-2.52
10.02
20.05
27.60
32.71
35.50
36.23
35.45
33.81
31.99
30.50
29.58
29.28
29.54
30.27
31.44
33.02
34.94
37.05
39.09
40.77
41.81
42.02
41.37
39.94
37.94
35.61
33.15
30.74
28.41
26.12
23.79
21.35
18.80
16.18
13.59
11.13
8.84
6.77
4.88
3.18
1.71
0.52
-0.39
-1.09
-1.75
-2.61
-3.87
-5.69
-8.10
-10.99
-14.19
-17.44
-20.49
-23.16
-25.43
-27.47
-29.60
-32.11
-35.17
-38.73
-42.55
-46.32
-49.79
-52.95
-55.97
-59.19
-63.05
-67.93
-74.04
-81.11
-88.36
-94.46
-97.77
-96.85
-90.88
-79.95
-65.02
-47.68
-29.67
-12.52
2.68
15.27
25.02
31.93
36.23
38.28
38.55
37.53
35.72
33.61
31.64
30.13
29.30
29.21
29.83
31.06
32.74
34.77
36.97
39.10
40.86
41.89
41.92
40.87
38.91
36.39
33.69
31.07
28.55
25.92
22.97
19.61
15.98
12.40
9.23
6.65
4.55
2.57
0.34
-2.40
-5.58
-8.95
-12.14
-14.92
-17.34
-19.68
-22.36
-25.71
-29.86
-34.67
-39.84
-45.02
-49.98
-54.66
-59.21
-63.91
-69.11
-75.17
-82.32
-90.50
-99.18
-107.25
-113.17
-115.23
-112.11
-103.31
-89.33
-71.57
-51.88
-32.08
-13.57
2.83
16.71
27.94
36.49
42.40
45.81
47.05
46.65
45.25
43.49
41.86
40.68
40.05
40.01
40.53
41.57
43.08
44.95
46.97
48.91
50.47
51.34
51.32
50.30
48.33
45.59
42.36
38.94
35.54
32.28
29.09
25.82
22.28
18.31
13.91
9.21
4.44
-0.21
-4.68
-9.05
-13.60
-18.58
-24.14
-30.20
-36.49
-42.65
-48.43
-53.74
-58.72
-63.67
-69.02
-75.28
-82.88
-91.99
-102.23
-112.49
-120.93
-125.43
-124.16
-116.23
-101.99
-82.88
-60.93
-38.23
-16.44
3.30
20.34
34.33
45.13
52.83
57.76
60.47
61.62
61.84
61.62
61.29
61.02
60.88
60.91
61.19
61.83
62.93
64.51
66.40
68.23
69.45
69.53
68.12
65.20
61.08
56.29
51.31
46.41
41.60
36.67
31.40
25.69
19.65
13.57
7.79
2.58
-2.02
-6.17
-10.23
-14.61
-19.61
-25.27
-31.34
-37.38
-42.98
-47.96
-52.50
-57.09
-62.38
-69.00
-77.41
-87.70
-99.37
-111.20
-121.21
-127.08
-126.73
-119.00
-104.13
-83.65
-60.00
-35.74
-12.96
7.03
23.67
36.82
46.61
53.17
56.81
58.00
57.44
55.97
54.36
53.16
52.60
52.63
53.02
53.61
54.36
55.35
56.69
58.30
59.88
60.86
60.69
58.96
55.57
50.80
45.14
39.15
33.23
27.51
21.85
16.00
9.71
2.86
-4.46
-12.04
-19.56
-26.70
-33.29
-39.35
-45.13
-51.17
-58.15
-66.70
-77.14
-89.06
-101.21
-111.52
-117.58
-117.30
-109.62
-94.81
-74.49
-51.05
-27.00
-4.37
15.63
32.40
45.82
55.85
62.53
66.03
66.81
65.68
63.61
61.56
60.12
59.52
59.57
60.00
60.51
61.01
61.54
62.14
62.74
63.09
62.79
61.37
58.52
54.15
48.48
42.03
35.44
29.28
23.83
18.95
14.25
9.17
3.32
-3.45
-10.89
-18.57
-25.96
-32.70
-38.66
-44.06
-49.41
-55.45
-62.94
-72.38
-83.63
-95.66
-106.56
-113.88
-115.33
-109.47
-96.23
-76.93
-53.90
-29.77
-6.80
13.50
30.42
43.81
53.78
60.50
64.20
65.23
64.19
61.84
59.03
56.61
55.13
54.91
55.90
57.83
60.24
62.66
64.68
66.06
66.70
66.59
65.69
63.87
60.97
56.92
51.78
45.81
39.42
33.05
27.04
21.52
16.41
11.42
6.21
0.50
-5.81
-12.56
-19.42
-26.05
-32.21
-37.91
-43.37
-49.03
-55.41
-63.00
-72.10
-82.60
-93.74
-103.96
-111.12
-113.01
-107.97
-95.56
-76.72
-53.59
-28.83
-4.98
16.16
33.61
47.03
56.42
61.95
63.91
62.89
59.82
55.89
52.28
49.84
48.89
49.28
50.50
52.07
53.63
55.05
56.37
57.53
58.41
58.66
57.89
55.75
52.12
47.15
41.28
35.07
28.97
23.23
17.80
12.38
6.71
0.63
-5.70
-11.99
-17.88
-23.18
-27.94
-32.58
-37.67
-43.88
-51.68
-61.17
-71.86
-82.54
-91.38
-96.25
-95.33
-87.66
-73.54
-54.43
-32.62
-10.49
9.96
27.45
41.36
51.44
57.73
60.41
59.91
56.99
52.70
48.16
44.27
41.54
40.04
39.54
39.72
40.35
41.32
42.58
43.96
45.11
45.57
44.91
42.93
39.71
35.61
31.07
26.43
21.81
17.08
12.01
6.35
0.08
-6.66
-13.48
-19.98
-25.91
-31.27
-36.31
-41.48
-47.30
-54.21
-62.30
-71.18
-79.76
-86.33
-88.90
-85.80
-76.31
-60.97
-41.56
-20.53
-0.31
17.33
31.43
