1523013020.00
64.000000
-0.00
-0.00
-0.00
-0.00
-0.00
-0.00
-0.00
-0.00
-0.00
-0.00
0.00
0.01
0.01
-0.00
-0.03
-0.05
-0.05
0.00
0.13
0.36
0.66
1.01
1.37
1.72
2.06
2.40
2.79
3.24
3.80
4.42
5.06
5.66
6.20
6.68
7.15
7.68
8.31
9.14
10.09
11.04
11.88
12.56
13.14
13.76
14.65
15.96
17.91
20.32
22.90
25.38
27.58
29.57
31.68
34.32
37.81
42.54
48.15
54.10
59.83
64.97
69.58
74.14
79.34
85.71
93.76
103.00
112.62
121.73
129.77
136.75
143.30
150.75
157.77
166.64
177.95
191.79
206.97
220.57
228.25
225.36
208.53
176.87
132.76
80.05
23.07
-34.94
-92.44
-149.16
-205.23
-260.37
-313.74
-363.87
-409.83
-450.90
-486.48
-515.71
-537.17
-549.14
-549.85
-538.22
-514.02
-478.44
-433.59
-382.11
-326.61
-269.37
-212.10
-156.06
-102.28
-51.63
-5.08
36.48
72.41
102.43
126.67
145.66
160.09
170.67
178.04
182.57
184.57
184.27
181.93
177.90
172.60
166.42
159.73
152.76
145.67
138.51
131.34
124.20
117.14
110.26
103.60
97.23
91.18
85.46
80.10
75.08
70.44
66.17
62.28
58.77
55.64
52.90
50.54
48.56
46.95
45.70
44.79
44.16
43.74
43.41
43.03
42.43
41.43
39.86
37.59
34.51
30.60
25.90
20.48
14.53
8.25
1.93
-4.19
-9.84
-14.81
-18.93
-22.12
-24.33
-25.60
-26.00
-25.66
-24.70
-23.28
-21.50
-19.49
-17.31
-15.01
-12.62
-10.17
-7.69
-5.18
-2.64
-0.06
2.55
5.22
7.97
10.83
13.75
16.73
19.74
22.81
25.93
29.12
32.43
35.89
39.58
43.42
47.38
51.46
55.66
60.00
64.51
69.25
74.26
79.63
85.20
90.88
96.61
102.33
108.04
113.72
119.39
125.07
130.83
136.40
141.56
146.11
149.82
152.41
153.52
152.65
149.07
144.13
138.29
131.88
125.07
118.03
110.89
103.74
96.71
89.92
83.53
77.37
71.38
65.50
59.73
54.08
48.60
43.35
38.44
34.00
29.92
26.18
22.75
19.66
16.91
14.51
12.49
10.85
9.63
8.71
8.00
7.45
7.00
6.63
6.32
6.05
5.81
5.63
5.42
5.17
4.85
4.45
3.98
3.44
2.85
2.23
1.61
0.98
0.34
-0.31
-0.98
-1.66
-2.36
-3.06
-3.76
-4.45
-5.11
-5.75
-6.35
-6.89
-7.39
-7.82
-8.21
-8.52
-8.76
-8.97
-9.14
-9.30
-9.48
-9.69
-9.90
-10.08
-10.20
-10.23
-10.18
-10.08
-9.99
-9.96
-10.01
-10.15
-10.37
-10.64
-10.91
-11.23
-11.63
-12.19
-12.98
-14.02
-15.26
-16.62
-17.96
-19.22
-20.44
-21.75
-23.38
-25.52
-28.26
-31.53
-35.11
-38.73
-42.23
-45.69
-49.37
-53.72
-59.09
-65.65
-73.19
-81.24
-89.26
-96.84
-104.00
-111.13
-118.92
-128.02
-138.74
-150.94
-164.08
-177.52
-190.74
-203.64
-216.47
-229.92
-244.88
-262.49
-283.76
-309.02
-337.27
-365.71
-390.01
-405.35
-407.95
-396.33
-371.79
-337.72
-298.37
-257.45
-217.52
-180.07
-146.03
-116.17
-91.12
-71.11
-55.69
-43.76
-34.09
-25.66
-18.06
-11.33
-5.78
-1.59
1.36
3.49
5.38
7.49
10.02
12.79
15.27
16.78
16.78
15.12
12.13
8.49
4.85
1.63
-1.34
-4.65
-9.10
-15.23
-23.04
-31.82
-40.24
-46.57
-49.13
-46.72
-38.90
-26.16
-9.81
8.41
26.71
43.58
58.04
69.58
78.00
83.45
86.15
86.47
84.86
81.82
77.81
73.26
68.52
63.83
59.40
55.37
51.87
48.88
46.35
44.06
41.67
38.80
35.04
30.15
24.11
17.21
9.96
2.89
-3.64
-9.60
-15.31
-21.34
-28.22
-36.22
-45.12
-54.10
-61.78
-66.52
-66.79
-61.64
-51.04
-35.92
-17.93
0.98
19.02
34.91
47.96
57.98
65.10
69.57
71.73
71.87
70.28
67.31
63.35
58.86
54.30
50.04
46.32
43.18
40.53
38.26
36.33
34.71
33.35
32.06
30.46
28.09
24.56
19.74
13.82
7.23
0.55
-5.75
-11.41
-16.54
-21.53
-26.97
-33.43
-41.25
-50.27
-59.70
-68.24
-74.22
-76.08
-72.79
-64.12
-50.72
-33.97
-15.59
2.70
19.52
33.92
45.40
53.78
59.11
61.68
61.89
60.34
57.72
54.71
51.91
49.65
48.00
46.72
45.45
43.88
41.87
39.53
37.09
34.75
32.52
30.15
27.26
23.49
18.71
13.14
7.13
1.15
-4.53
-9.78
-14.68
-19.36
-24.04
-28.93
-34.30
-40.39
-47.25
-54.60
-61.61
-67.11
-69.66
-68.07
-61.66
-50.59
-35.83
-18.86
-1.47
14.75
28.58
39.33
46.81
51.16
52.79
52.20
50.02
46.85
43.36
40.09
37.40
35.42
33.95
32.69
31.33
29.72
27.89
26.00
24.25
22.59
20.83
18.66
15.83
12.27
8.21
4.02
0.01
-3.64
-7.03
-10.33
-13.80
-17.63
-21.95
-26.92
-32.56
-38.75
-45.03
-50.47
-53.91
-54.19
-50.64
-43.17
-32.43
-19.48
-5.59
8.04
20.42
30.77
38.58
43.62
45.96
45.96
44.17
41.19
37.58
33.79
30.14
26.84
24.01
21.65
19.71
18.11
16.67
15.27
13.66
11.61
8.88
5.41
1.34
-2.98
-7.09
-10.62
-13.47
-15.83
-18.13
-20.84
-24.33
-28.78
-34.06
-39.68
-44.84
-48.50
-49.53
-47.07
-40.71
-30.76
-18.20
-4.47
8.97
20.88
30.58
37.86
42.81
45.64
46.49
45.44
42.67
38.47
33.41
28.09
23.06
18.72
15.25
12.67
10.83
9.43
8.04
6.12
3.24
-0.73
-5.59
-10.80
-15.79
-20.18
-24.00
-27.70
-31.93
-37.36
-44.27
-52.49
-61.24
-69.23
-74.91
-76.84
-74.03
-66.26
-54.18
-39.13
-22.80
-6.85
7.44
19.32
28.52
35.06
39.15
40.98
40.76
38.79
35.44
31.19
26.55
22.02
18.00
14.75
12.35
10.70
9.54
8.43
6.89
4.51
1.00
-3.66
-9.22
-15.32
-21.49
-27.37
-32.87
-38.20
-43.84
-50.33
-57.91
-66.20
-74.15
-80.10
-82.34
-79.59
-71.38
-58.23
-41.49
-22.95
-4.41
12.64
27.23
38.79
47.14
52.28
54.38
53.76
51.01
46.85
42.07
37.37
33.07
29.21
25.62
22.07
18.49
14.97
11.64
8.53
5.56
2.44
-1.10
-5.28
-10.20
-15.80
-22.07
-29.10
-37.11
-46.38
-57.00
-68.59
-80.05
-89.68
-95.40
-95.37
-88.57
-75.15
-56.42
-34.44
-11.50
10.37
29.70
45.66
57.90
66.41
71.47
73.51
73.11
70.92
67.53
63.45
59.08
54.74
50.62
46.87
43.52
40.51
37.64
34.55
30.79
25.99
19.94
12.76
4.87
-3.11
-10.71
-17.71
-24.43
-31.56
-39.98
-50.37
-62.71
-76.08
-88.67
-98.15
-102.21
-99.32
-89.03
-72.12
-50.29
-25.81
-0.98
22.13
41.90
57.30
67.88
73.84
75.92
75.13
72.53
68.96
64.99
60.93
56.97
53.22
49.78
46.70
43.97
41.49
39.14
36.71
33.97
30.63
26.39
21.02
14.47
6.95
-1.04
-8.93
-16.22
-22.81
-29.10
-35.92
-44.23
-54.55
-66.46
-78.43
-88.16
-93.10
-91.42
-82.46
-66.92
-46.57
-23.68
-0.42
21.40
40.46
55.88
67.15
74.14
77.08
76.61
73.62
69.11
63.93
58.73
53.89
49.61
45.94
42.96
40.64
38.92
37.61
36.36
34.71
32.19
28.42
23.29
17.02
10.01
2.78
-4.24
-10.98
-17.66
-24.84
-33.20
-43.31
-55.21
-68.13
-80.38
-89.57
-93.24
-89.55
-77.95
-59.43
-36.23
-11.17
13.13
34.69
52.44
66.00
75.37
80.81
82.72
81.57
78.04
72.84
66.69
60.25
54.09
48.65
44.24
40.96
38.65
36.94
35.17
32.74
29.12
24.13
17.89
10.81
3.47
-3.57
-10.00
-15.92
-21.75
-28.25
-36.20
-46.07
-57.60
-69.67
-80.27
-86.94
-87.49
-80.62
-66.41
-46.33
-22.85
1.25
23.49
42.04
55.98
65.05
69.57
70.17
67.69
63.02
57.10
50.74
44.63
39.26
34.91
31.70
29.52
28.17
27.38
26.82
26.08
24.78
22.52
19.03
14.26
8.32
1.52
-5.82
-13.50
-21.53
-30.15
-39.73
-50.56
-62.58
-75.15
-86.90
-95.87
-99.89
-97.19
-87.01
-69.92
-47.73
-23.01
1.55
23.83
42.53
57.13
67.68
74.48
77.92
78.43
76.54
72.92
68.25
63.20
58.25
53.71
49.69
46.23
43.36
41.10
39.42
38.07
36.60
34.34
30.64
25.11
17.82
9.25
0.25
-8.39
-16.24
-23.34
-30.24
-37.78
-46.78
-57.75
-70.55
-84.27
-97.19
-107.07
-111.56
-108.85
-98.24
-80.35
-57.08
-31.09
-5.12
18.58
38.65
54.57
66.42
74.61
79.59
81.76
81.55
79.49
76.20
72.30
68.36
64.65
61.23
57.99
54.76
51.51
48.38
45.53
43.08
40.95
38.80
36.14
32.44
27.30
20.56
12.32
2.97
-6.91
-16.63
-25.59
-33.37
-39.88
-45.41
-50.60
-56.24
-62.92
-70.63
-78.54
-84.94
-87.72
-84.94
-75.51
-59.67
-38.96
-15.82
7.09
27.57
44.27
56.78
65.39
70.66
73.25
73.64
72.30
69.68
66.28
62.66
59.18
56.02
53.14
50.36
47.59
44.86
42.29
39.95
37.81
35.64
33.19
30.22
26.59
22.20
16.99
10.88
3.91
-3.72
-11.70
-19.54
-26.84
-33.38
-39.26
-44.81
-50.57
-57.14
-64.90
-73.84
-83.28
-91.87
-97.68
-98.72
-93.48
-81.55
-63.76
-42.04
-18.87
3.38
22.90
38.70
50.48
58.47
63.06
64.77
64.23
62.10
59.09
55.85
52.84
50.32
48.27
46.48
44.67
42.59
40.13
37.33
34.36
31.39
28.57
25.87
23.16
20.17
16.64
12.40
7.42
1.86
-4.09
-10.16
-16.21
-22.14
-27.94
-33.66
-39.46
-45.63
-52.48
-60.25
-68.80
-77.36
-84.55
-88.60
-87.88
-81.40
-69.22
-52.42
-32.80
-12.38
7.09
24.29
38.42
49.03
55.92
59.16
59.12
56.45
52.05
46.90
41.85
37.50
34.09
31.56
29.62
27.90
26.09
24.10
22.03
20.12
18.50
17.06
15.35
12.76
8.83
3.48
-2.86
-9.42
-15.47
-20.62
-24.99
-29.06
-33.46
-38.69
-45.01
-52.34
-60.17
-67.55
-73.14
-75.39
-72.99
-65.27
-52.53
-36.08
-17.81
0.26
16.47
29.77
39.74
46.39
49.91
50.66
49.04
45.58
40.95
35.86
30.96
26.74
23.39
20.84
18.87
17.23
15.79
14.47
13.28
12.16
10.85
8.94
5.97
1.69
-3.82
-10.07
-16.35
-22.03
-26.81
-30.86
-34.86
-39.67
-46.06
-54.28
-63.82
-73.33
-80.87
-84.47
-82.60
-74.76
-61.52
-44.35
-25.17
-5.85
12.09
27.60
40.03
49.05
54.55
56.70
55.91
52.87
48.39
43.29
38.23
33.65
29.79
26.60
23.97
21.70
19.63
17.69
15.81
13.97
11.98
9.54
6.29
1.98
-3.40
-9.61
-16.14
-22.52
-28.48
-34.02
-39.47
-45.28
-51.97
-59.79
-68.63
-77.70
-85.63
-90.62
-90.85
-85.09
-73.13
-55.97
-35.51
-14.14
6.03
23.45
37.33
47.50
54.10
57.47
58.02
56.31
53.00
48.79
44.27
39.80
35.43
31.07
26.69
22.44
18.69
15.77
13.81
12.51
11.24
9.30
6.13
1.59
-4.04
-10.25
-16.52
-22.48
-28.11
-33.62
-39.44
-46.08
-53.94
-63.08
-73.00
-82.45
-89.53
-92.12
-88.64
-78.50
-62.49
-42.49
-20.98
-0.29
17.83
32.45
43.31
50.55
54.59
55.94
55.22
53.07
50.06
46.63
43.03
39.34
35.56
31.74
27.97
24.42
21.15
18.14
15.15
11.85
7.91
3.18
-2.29
-8.26
-14.37
-20.41
-26.27
-32.10
-38.25
-45.22
-53.58
-63.66
-75.34
-87.61
-98.57
-105.76
-106.80
-100.26
-86.16
-66.14
-42.82
-19.06
2.82
21.41
36.26
47.47
55.34
60.20
62.37
62.22
60.22
56.89
52.69
47.96
42.97
37.95
33.20
29.02
25.60
22.92
20.65
18.16
14.71
9.66
2.81
-5.55
-14.61
-23.33
-30.86
-36.92
-42.10
-47.64
-55.06
-65.40
-78.61
-93.31
-107.04
-116.99
-120.88
-117.68
-107.79
-92.83
-75.07
-56.76
-39.59
-24.48
-11.43
0.18
11.44
23.58
37.61
54.10
72.98
93.54
114.71
135.50
155.38
174.59
193.97
214.41
236.14
258.08
277.73
291.50
295.70
287.49
265.65
230.97
185.96
134.43
80.70
28.89
-17.85
-57.72
-90.43
-116.76
-137.96
-155.03
-168.26
-177.29
-181.51
-180.43
-174.03
-162.76
-147.39
-128.91
-108.52
-87.66
-67.92
-50.85
-37.55
-28.41
-23.02
-20.41
-19.33
-18.68
-17.79
-16.45
-14.79
-13.09
-11.54
-10.12
-8.63
-6.80
-4.63
-2.45
-1.00
-1.13
-3.46
-8.13
-14.67
-22.23
-29.85
-36.87
-42.99
-48.38
-53.51
-59.10
-65.89
-74.51
-85.07
-96.87
-108.27
-116.89
-120.18
-116.31
-104.64
-86.16
-62.96
-37.79
-13.16
9.11
28.06
43.49
55.69
65.02
71.76
76.10
78.16
78.17
76.58
74.04
71.30
68.95
67.26
66.10
65.10
63.85
62.15
59.91
57.20
54.09
50.51
46.28
41.20
35.07
27.83
19.64
10.90
2.10
-6.28
-13.95
-20.92
-27.50
-34.19
-41.49
-49.73
-59.08
-69.48
-80.61
-91.74
-101.58
-108.27
-109.81
-104.65
-92.25
-73.38
-49.93
-24.36
0.97
24.35
44.77
61.77
75.20
85.01
91.30
94.35
94.71
93.13
90.37
87.10
83.70
80.41
77.37
74.70
72.56
70.99
69.88
68.90
67.67
65.75
62.91
59.11
54.46
49.11
43.19
36.70
29.63
22.00
13.92
5.57
-2.84
-11.12
-19.12
-26.72
-33.92
-40.88
-47.99
-55.90
-65.09
-75.63
-86.65
-96.33
-102.20
-101.93
-94.19
-79.12
-58.34
-34.37
-9.85
13.11
33.23
49.94
63.11
72.81
79.27
82.81
84.02
83.58
82.21
80.39
78.43
76.41
74.27
72.00
69.55
66.97
64.28
61.55
58.73
55.78
52.57
48.95
44.80
40.04
34.71
28.97
23.02
17.05
11.12
5.22
-0.74
-6.78
-12.81
-18.55
-23.74
-28.21
-32.14
-36.03
-40.61
-46.65
-54.46
-63.70
-73.16
-81.00
-85.22
-84.20
-77.26
-64.79
-48.18
-29.31
-10.16
7.70
23.21
35.81
45.34
51.88
55.76
57.41
57.34
56.09
54.12
51.78
49.36
47.00
44.78
42.77
40.96
39.32
37.81
36.36
34.92
33.45
31.82
29.88
27.43
24.28
20.37
15.80
10.87
5.91
1.21
-3.06
-6.98
-10.71
-14.46
-18.37
-22.58
-27.28
-32.72
-39.08
-46.32
-53.89
-60.64
-65.04
-65.60
-61.39
-52.42
-39.66
-24.79
-9.61
4.41
16.34
25.78
32.66
37.01
38.88
38.43
36.04
32.35
28.15
24.24
21.16
19.17
18.21
17.98
18.05
18.03
17.60
16.65
15.25
13.57
11.81
10.05
8.16
5.93
3.13
-0.30
-4.23
-8.37
-12.39
-16.07
-19.33
-22.30
-25.14
-28.07
-31.26
-34.91
-39.10
-43.85
-48.82
-53.32
-56.30
-56.59
-53.24
-46.00
-35.36
-22.56
-9.20
3.26
13.82
22.03
27.92
31.66
33.48
33.57
32.19
29.73
26.69
23.64
21.01
19.06
17.76
16.92
16.28
15.64
14.91
14.15
13.45
12.85
12.24
11.29
9.64
6.89
2.91
-2.11
-7.70
-13.23
-18.18
-22.26
-25.53
-28.27
-30.92
-33.90
-37.57
-42.11
-47.47
-53.24
-58.58
-62.31
-63.13
-60.12
-53.02
-42.46
-29.76
-16.60
-4.42
5.89
14.02
20.22
24.84
28.14
30.15
30.76
29.88
27.66
24.55
21.20
18.24
16.04
14.60
13.60
12.60
11.39
10.01
8.74
7.84
7.35
6.98
6.23
4.61
1.89
-1.77
-5.99
-10.27
-14.25
-17.80
-21.01
-24.10
-27.29
-30.78
-34.74
-39.39
-44.77
-50.63
-56.30
-60.69
-62.52
-60.81
-55.24
-46.31
-35.14
-23.02
-11.01
0.18
10.22
18.83
25.71
30.54
33.16
33.76
32.84
30.99
28.77
26.51
24.34
22.23
20.14
17.97
15.66
13.16
10.55
8.04
5.96
4.55
3.88
3.65
3.35
2.35
0.24
-3.06
-7.25
-11.87
-16.43
-20.66
-24.53
-28.28
-32.27
-36.85
-42.21
-48.28
-54.62
-60.39
-64.49
-65.74
-63.27
-56.75
-46.58
-33.77
-19.66
-5.62
7.28
18.33
27.23
33.90
38.38
40.76
41.26
40.21
38.08
35.42
32.75
30.35
28.30
26.51
24.80
23.13
21.51
20.03
18.78
17.63
16.31
14.49
11.83
8.16
3.51
-1.92
-7.77
-13.62
-19.08
-23.88
-27.97
-31.53
-34.95
-38.70
-43.22
-48.75
-55.18
-62.04
-68.35
-72.81
-74.08
-71.13
-63.55
-51.82
-37.17
-21.24
-5.67
8.30
20.03
29.31
36.19
40.80
43.23
43.71
42.61
40.51
37.98
35.45
33.11
30.93
28.77
26.56
24.31
22.15
20.23
18.57
17.10
15.65
14.00
11.88
9.07
5.44
1.00
-4.06
-9.38
-14.57
-19.36
-23.69
-27.81
-32.21
-37.42
-43.78
-51.26
-59.23
-66.54
-71.67
-73.18
-70.05
-62.07
-49.83
-34.62
-18.06
-1.73
13.12
25.68
35.49
42.41
46.40
47.62
46.45
43.49
39.56
35.45
31.78
28.79
26.40
24.28
22.16
19.94
17.69
15.61
13.80
12.23
10.63
8.69
6.14
2.84
-1.16
-5.67
-10.40
-15.12
-19.66
-24.08
-28.57
-33.57
-39.52
-46.76
-55.27
-64.44
-73.09
-79.55
-82.09
-79.45
-71.29
-58.30
-41.97
-24.17
-6.62
9.45
23.27
34.40
42.61
47.76
49.92
49.54
47.25
43.93
40.36
37.12
34.47
32.36
30.59
28.91
27.21
25.44
23.70
22.07
20.53
18.86
16.63
13.40
8.80
2.83
-4.11
-11.34
-18.15
-24.12
-29.23
-33.93
-38.87
-44.77
-52.09
-60.90
-70.62
-80.06
-87.52
-91.15
-89.44
-81.68
-68.32
-50.78
-31.08
-11.30
6.94
22.61
35.22
44.63
50.92
54.31
55.16
54.06
51.73
48.84
45.97
43.36
41.05
38.89
36.77
34.67
32.72
31.09
29.89
29.10
28.50
27.62
25.97
23.05
18.60
12.73
5.91
-1.14
-7.74
-13.52
-18.54
-23.41
-28.94
-35.89
-44.61
-54.84
-65.55
-75.16
-81.78
-83.68
-79.75
-69.75
-54.52
-35.68
-15.31
4.58
22.38
37.02
48.04
55.43
59.49
60.68
59.59
56.88
53.23
49.32
45.66
42.53
39.95
37.74
35.67
33.57
31.47
29.52
27.83
26.34
24.79
22.67
19.52
15.02
9.22
2.47
-4.60
-11.39
-17.48
-22.81
-27.74
-32.95
-39.22
-47.17
-56.90
-67.73
-78.19
-86.27
-89.87
-87.48
-78.56
-63.85
-45.04
-24.37
-4.02
14.33
29.67
41.65
50.23
55.60
57.98
57.74
55.36
51.51
46.96
42.38
38.26
34.74
31.74
29.09
26.64
24.43
22.54
20.93
19.30
17.14
13.82
8.98
2.74
-4.27
-11.17
-17.18
-21.96
-25.78
-29.44
-33.89
-39.97
-48.03
-57.74
-68.03
-77.16
-83.12
-84.02
-78.73
-67.15
-50.37
-30.32
-9.31
10.51
27.50
40.75
49.97
55.37
57.53
57.14
54.92
51.48
47.35
42.92
38.52
34.48
31.09
28.53
26.79
25.62
24.56
23.12
20.86
17.53
13.07
7.55
1.22
-5.71
-13.00
-20.41
-27.86
-35.40
-43.30
-52.03
-62.00
-73.25
-85.04
-95.73
-103.11
-104.88
-99.51
-86.68
-67.57
-44.36
-19.70
4.01
25.02
42.33
55.58
64.79
70.26
72.47
72.05
69.67
66.04
61.73
57.13
52.44
47.74
43.06
38.52
34.32
30.68
27.74
25.38
23.16
20.50
16.72
11.49
4.89
-2.56
-10.24
-17.67
-24.80
-32.08
-40.24
-50.03
-61.84
-75.41
-89.65
-102.71
-112.33
-116.28
-113.05
-102.17
-84.53
-62.08
-37.31
-12.66
9.97
29.30
44.68
55.88
62.94
66.10
65.93
63.25
59.16
54.73
50.79
47.71
45.39
43.47
41.57
39.60
37.78
36.43
35.72
35.36
34.64
32.62
28.58
22.17
13.66
3.76
-6.63
-16.66
-25.81
-33.95
-41.44
-49.05
-57.65
-68.03
-80.37
-93.95
-107.06
-117.26
-121.97
-119.22
-108.19
-89.59
-65.37
-38.21
-10.84
14.56
36.69
55.04
69.61
80.62
88.25
92.61
93.93
92.68
89.65
85.87
82.24
79.29
77.06
75.15
72.99
70.16
66.57
62.50
58.34
54.37
50.56
46.53
41.70
35.54
27.89
19.03
9.61
0.36
-8.14
-15.69
-22.46
-28.90
-35.61
-43.20
-52.26
-63.15
-75.76
-89.25
-101.81
-111.00
-114.22
-109.62
-96.68
-76.50
-51.44
-24.47
1.68
25.06
44.63
60.16
71.89
80.23
85.61
88.40
88.99
87.85
85.58
82.79
80.09
77.89
76.32
75.26
74.38
73.26
71.55
69.03
65.67
61.57
56.86
51.63
45.88
39.52
32.43
24.65
16.31
7.73
-0.67
-8.58
-15.81
-22.41
-28.59
-34.68
-41.08
-48.23
-56.51
-66.00
-76.26
-86.16
-93.83
-97.13
-94.25
-84.36
-67.98
-46.78
-23.10
0.68
22.70
41.74
57.12
68.54
75.91
79.39
79.47
76.96
72.84
68.14
63.58
59.58
56.21
53.31
50.68
48.18
45.78
43.55
41.57
39.83
38.11
36.03
33.11
28.87
23.17
16.26
8.70
1.24
-5.55
-11.50
-16.87
-22.22
-28.25
-35.46
-44.11
-53.97
-64.28
-73.70
-80.42
-82.64
-78.94
-68.94
-53.37
-33.98
-13.05
7.23
25.22
39.93
50.92
58.17
61.81
62.24
60.04
56.00
51.01
45.91
41.31
37.45
34.35
31.81
29.70
27.92
26.45
25.19
23.96
22.39
20.05
16.56
11.80
5.93
-0.62
-7.25
-13.47
-19.00
-23.98
-28.86
-34.32
-40.97
-49.09
-58.36
-67.75
-75.67
-80.20
-79.73
-73.39
-61.40
-45.08
-26.42
-7.54
9.81
24.55
36.27
44.93
50.62
53.42
53.51
51.30
47.48
42.94
38.54
34.86
32.08
30.00
28.29
26.61
24.87
23.11
21.52
20.16
18.89
17.38
15.10
11.59
6.57
0.20
-6.97
-14.18
-20.66
-26.04
-30.42
-34.34
-38.50
-43.58
-49.90
-57.33
-65.25
-72.58
-77.94
-79.88
-77.18
-69.25
-56.40
-39.82
-21.38
-3.13
13.23
26.70
37.02
44.43
49.33
52.06
52.76
51.52
48.65
44.69
40.41
36.61
33.75
31.83
30.45
29.04
27.18
24.78
22.11
19.54
17.33
15.45
13.54
11.13
7.77
3.31
-2.17
-8.32
-14.73
-20.93
-26.59
-31.52
-35.77
-39.66
-43.74
-48.71
-55.01
-62.66
-70.90
-78.26
-82.81
-82.78
-77.11
-65.85
-50.15
-31.91
-13.16
4.32
19.39
31.50
40.49
46.55
49.95
51.12
50.56
48.77
46.21
43.28
40.29
37.50
35.11
33.19
31.69
30.44
29.20
27.78
26.13
24.29
22.37
20.35
18.10
15.36
11.84
7.41
2.18
-3.53
-9.28
-14.73
-19.76
-24.51
-29.34
-34.66
-40.83
-47.98
-56.03
-64.44
-72.32
-78.40
-81.28
-79.71
-72.99
-61.29
-45.64
-27.72
-9.44
7.47
21.80
33.01
41.06
46.27
49.04
49.83
48.97
46.82
43.74
40.10
36.36
32.84
29.78
27.19
24.96
22.87
20.72
18.43
16.08
13.87
11.95
10.24
8.38
5.84
2.15
-2.75
-8.42
-14.10
-19.04
-22.91
-25.90
-28.69
-32.02
-36.44
-42.13
-48.91
-56.37
-63.81
-70.25
-74.46
-75.05
-70.98
-61.92
-48.54
-32.36
-15.33
0.77
14.73
26.00
34.53
40.47
43.97
45.28
44.74
42.90
40.40
37.80
35.45
33.50
31.88
30.52
29.31
28.18
27.00
25.57
23.74
21.48
18.86
16.05
13.07
9.82
5.97
1.31
-4.20
-10.25
-16.36
-22.06
-27.13
-31.63
-35.90
-40.31
-45.16
-50.49
-56.25
-62.16
-67.69
-72.00
-74.02
-72.53
-66.66
-56.15
-41.62
-24.48
-6.62
10.20
24.64
36.07
44.40
49.89
52.84
53.56
52.28
49.46
45.61
41.45
37.63
34.56
32.32
30.64
29.09
27.33
25.28
23.04
20.90
19.01
17.37
15.76
13.82
11.21
7.71
3.30
-1.83
-7.39
-13.09
-18.65
-23.86
-28.63
-33.06
-37.39
-42.10
-47.73
-54.60
-62.59
-70.80
-77.72
-81.55
-80.74
-74.53
-63.20
-47.91
-30.32
-12.17
4.97
19.90
31.77
40.10
44.85
46.47
45.76
43.71
41.18
38.73
36.55
34.55
32.52
30.32
27.89
25.32
22.75
20.37
18.31
16.63
15.28
14.02
12.49
10.26
7.05
2.76
-2.44
-8.20
-14.08
-19.74
-25.01
-30.00
-35.11
-40.84
-47.67
-55.64
-64.23
-72.18
-77.79
-79.37
-75.75
-66.71
-53.00
-36.17
-18.11
-0.61
14.95
27.69
37.15
43.28
46.24
46.47
44.56
41.24
37.23
33.17
29.45
26.23
23.53
21.22
19.32
17.81
16.67
15.76
14.70
13.05
10.40
6.57
1.65
-3.97
-9.87
-15.67
-21.17
-26.37
-31.44
-36.74
-42.67
-49.61
-57.60
-66.06
-73.76
-78.95
-79.88
-75.31
-65.04
-49.87
-31.53
-12.06
6.57
22.77
35.58
44.54
49.75
51.64
50.93
48.39
44.72
40.43
35.92
31.47
27.37
23.84
20.95
18.65
16.69
14.73
12.50
9.80
6.55
2.76
-1.55
-6.30
-11.38
-16.67
-21.99
-27.32
-32.76
-38.68
-45.61
-53.95
-63.68
-74.03
-83.47
-89.99
-91.58
-86.93
-75.76
-59.04
-38.61
-16.80
4.15
22.50
37.24
48.06
55.18
59.15
60.61
60.11
58.06
54.76
50.50
45.62
40.56
35.66
31.28
27.57
24.60
22.28
20.45
18.84
17.07
14.71
11.28
6.51
0.34
-6.95
-14.88
-22.82
-30.31
-37.21
-43.91
-51.13
-59.67
-69.89
-81.32
-92.42
-100.86
-104.18
-100.54
-89.42
-71.78
-49.74
-25.94
-2.85
17.79
35.00
48.47
58.23
64.52
67.66
68.11
66.55
63.82
60.74
57.93
55.59
53.57
51.44
48.81
45.55
41.87
38.26
35.17
32.79
30.78
28.44
24.92
19.62
12.45
3.85
-5.35
-14.30
-22.38
-29.40
-35.70
-41.94
-49.06
-57.88
-68.76
-81.24
-93.86
-104.33
-110.03
-108.85
-99.80
-83.47
-61.71
-37.11
-12.22
10.94
31.08
47.51
59.94
68.40
73.16
74.82
74.21
72.21
69.60
66.92
64.45
62.21
60.09
57.89
55.40
52.50
49.17
45.63
42.15
38.96
36.04
33.07
29.42
24.54
18.18
10.51
2.16
-6.12
-13.80
-20.75
-27.25
-33.97
-41.58
-50.62
-61.28
-73.24
-85.55
-96.54
-104.10
-106.05
-100.85
-88.07
-68.73
-44.95
-19.47
5.15
26.99
44.94
58.64
68.12
73.68
75.74
74.88
71.87
67.60
62.95
58.60
54.93
51.97
49.51
47.18
44.68
41.88
38.86
35.85
33.00
30.35
27.61
24.32
19.99
14.38
7.65
0.31
-6.95
-13.63
-19.60
-25.15
-30.94
-37.70
-46.04
-56.25
-68.07
-80.50
-91.84
-99.90
-102.47
-97.97
-86.05
-67.70
-45.08
-20.83
2.57
23.32
40.34
53.15
61.69
66.12
66.90
64.80
60.81
56.02
51.28
47.09
43.55
40.52
37.82
35.45
33.42
31.80
30.46
29.10
27.27
24.55
20.64
15.45
9.13
2.04
-5.35
-12.55
-19.23
-25.36
-31.22
-37.45
-44.74
-53.58
-63.83
-74.47
-83.63
-88.97
-88.39
-80.66
-66.01
-46.06
-23.41
-0.83
19.40
35.94
48.37
56.84
61.79
63.67
62.90
59.97
55.41
49.81
43.75
37.78
32.27
27.54
23.77
21.01
19.20
18.04
17.06
15.68
13.36
9.76
4.93
-0.78
-6.83
-12.70
-18.16
-23.29
-28.55
-34.59
-42.10
-51.38
-62.13
-73.22
-82.65
-88.06
-87.29
-79.16
-63.89
-43.14
-19.50
4.15
25.37
42.64
55.42
63.86
68.51
69.97
68.77
65.39
60.33
54.11
47.36
40.69
34.57
29.30
25.02
21.68
19.18
17.25
15.52
13.48
10.65
6.63
1.35
-5.00
-12.01
-19.15
-26.03
-32.51
-38.83
-45.57
-53.45
-62.97
-73.91
-85.00
-93.98
-98.13
-95.19
-84.18
-65.86
-42.54
-17.24
7.18
28.69
46.29
59.71
69.05
74.52
76.45
75.40
72.17
67.76
63.06
58.67
54.76
51.10
47.37
43.34
39.02
34.72
30.89
27.78
25.36
23.12
20.21
15.84
9.55
1.47
-7.68
-16.88
-25.28
-32.46
-38.61
-44.50
-51.19
-59.65
-70.31
-82.67
-95.14
-105.17
-109.94
-107.17
-95.95
-77.07
-52.83
-26.25
-0.23
23.14
42.77
58.37
70.05
78.02
82.51
83.80
82.42
79.13
74.83
70.37
66.34
62.90
59.89
56.98
53.85
50.39
46.69
43.01
39.52
36.29
33.10
29.60
25.36
19.98
13.30
5.43
-3.26
-12.15
-20.67
-28.37
-35.10
-41.07
-46.75
-52.80
-59.95
-68.83
-79.72
-92.18
-104.81
-115.29
-120.82
-118.92
-108.32
-89.49
-64.58
-36.74
-9.23
15.49
36.13
52.41
64.68
73.43
79.03
81.80
82.07
80.31
77.17
73.29
69.21
65.26
61.64
58.41
55.66
53.42
51.63
50.06
48.33
46.12
43.16
39.45
35.11
30.33
25.19
19.62
13.52
6.78
-0.52
-8.18
-15.93
-23.48
-30.67
-37.45
-43.96
-50.52
-57.69
-66.00
-75.75
-86.59
-97.30
-105.78
-109.55
-106.49
-95.55
-77.18
-53.33
-26.83
-0.67
22.81
42.18
56.97
67.35
73.75
76.64
76.49
73.93
69.75
64.86
60.16
56.22
53.20
50.89
48.91
46.90
44.80
42.67
40.62
38.62
36.52
34.02
30.85
26.83
21.90
16.09
9.46
2.14
-5.66
-13.57
-21.21
-28.24
-34.53
-40.21
-45.65
-51.37
-57.95
-65.80
-75.00
-84.91
-94.15
-100.67
-102.22
-97.12
-84.86
-66.34
-43.65
-19.47
3.75
24.24
41.10
54.03
63.07
68.43
70.36
69.38
66.20
61.73
56.84
52.21
48.15
44.64
41.53
38.63
35.85
33.21
30.77
28.54
26.51
24.52
22.42
19.97
16.93
13.05
8.21
2.43
-4.10
-11.04
-18.01
-24.67
-30.81
-36.42
-41.66
-46.86
-52.53
-59.20
-67.19
-76.24
-85.33
-92.70
-96.18
-93.88
-84.86
-69.51
-49.49
-27.19
-5.03
15.09
32.09
45.57
55.58
62.34
66.06
67.00
65.62
62.55
58.59
54.49
50.74
47.51
44.61
41.68
38.37
34.62
30.56
26.58
22.98
19.93
17.25
14.55
11.32
7.13
1.83
-4.42
-11.20
-18.04
-24.45
-30.25
-35.47
-40.42
-45.59
-51.51
-58.62
-66.99
-76.08
-84.74
-91.23
-93.64
-90.42
-80.91
-65.62
-46.13
-24.64
-3.40
15.75
31.62
43.74
52.05
56.76
58.33
57.30
54.38
50.44
46.27
42.43
39.12
36.12
33.06
29.64
25.83
21.93
18.31
15.31
12.89
10.78
8.45
5.43
1.47
-3.42
-9.03
-15.07
-21.31
-27.66
-34.23
-41.30
-49.27
-58.47
-69.03
-80.49
-91.75
-100.96
-106.02
-105.01
-96.86
-81.79
-61.28
-37.79
-14.00
7.70
25.71
39.28
48.35
53.33
54.84
53.58
50.29
45.73
40.56
35.29
30.27
25.64
21.45
17.73
14.50
11.79
9.57
7.64
5.60
2.98
-0.72
-5.70
-11.92
-18.95
-26.23
-33.19
-39.52
-45.32
-51.08
-57.57
-65.55
-75.39
-86.76
-98.43
-108.36
-114.16
-113.67
-105.70
-90.38
-69.20
-44.54
-19.05
4.99
26.00
43.19
56.33
65.49
71.01
73.31
73.05
70.98
67.87
64.26
60.35
56.09
51.28
45.91
40.25
34.85
30.33
26.99
24.66
22.69
20.20
16.46
11.13
4.39
-3.23
-11.06
-18.56
-25.49
-32.03
-38.69
-46.29
-55.52
-66.66
-79.13
-91.33
-100.86
-105.11
-102.09
-91.06
-72.83
-49.43
-23.57
2.03
25.22
44.58
59.45
69.74
75.84
78.34
77.97
75.48
71.64
67.09
62.39
57.80
53.39
49.00
44.48
39.84
35.33
31.31
28.05
25.50
23.12
20.20
16.07
10.40
3.38
-4.42
-12.31
-19.66
-26.28
-32.44
-38.83
-46.37
-55.79
-67.15
-79.50
-90.76
-98.26
-99.39
-92.58
-77.78
-56.54
-31.51
-5.69
18.33
38.79
54.79
66.14
73.09
76.08
75.73
72.75
67.91
61.95
55.54
49.18
43.27
38.06
33.71
30.23
27.54
25.41
23.45
21.18
18.11
13.85
8.28
1.49
-6.13
-14.11
-22.01
-29.65
-37.21
-45.26
-54.50
-65.37
-77.63
-90.07
-100.59
-106.64
-106.05
-97.64
-81.69
-59.84
-34.58
-8.64
15.62
36.52
53.10
65.02
72.34
75.41
74.78
71.23
65.59
58.75
51.52
44.60
38.47
33.39
29.41
26.32
23.78
21.32
18.47
14.89
10.39
4.96
-1.22
-7.89
-14.79
-21.73
-28.72
-36.04
-44.21
-53.91
-65.58
-79.00
-92.94
-105.15
-112.77
-113.14
-104.71
-87.62
-63.67
-35.82
-7.30
19.16
41.78
59.74
72.92
81.63
86.28
87.40
85.63
81.70
76.38
70.31
64.01
57.80
51.91
46.52
41.87
38.13
35.33
33.19
31.12
28.36
24.26
18.46
11.14
2.86
-5.61
-13.67
-21.14
-28.35
-36.04
-45.16
-56.53
-70.33
-85.80
-101.00
-113.11
-119.01
-116.25
-103.89
-82.85
-55.69
-25.80
3.48
29.58
51.02
67.34
78.70
85.68
88.96
89.25
87.26
83.52
78.51
72.61
66.13
59.35
52.63
46.35
40.87
36.44
33.01
30.26
27.53
24.11
19.40
13.19
5.71
-2.52
-10.91
-19.10
-27.08
-35.25
-44.30
-54.91
-67.39
-81.19
-94.79
-105.71
-111.08
-108.49
-96.82
-76.73
-50.51
-21.50
6.94
32.15
52.61
67.97
78.50
84.81
87.49
87.03
83.95
78.79
72.28
65.19
58.25
51.97
46.60
42.13
38.30
34.75
31.09
27.05
22.40
17.06
11.03
4.41
-2.68
-10.09
-17.83
-26.00
-34.94
-45.14
-56.99
-70.48
-84.76
-97.90
-107.21
-109.84
-103.80
-88.69
-65.96
-38.51
-9.81
17.12
40.21
58.60
72.24
81.51
86.82
88.58
87.24
83.34
77.63
70.93
64.02
57.45
51.52
46.21
41.39
36.88
32.54
28.26
23.94
19.44
14.55
9.17
3.27
-3.02
-9.56
-16.34
-23.65
-32.07
-42.25
-54.49
-68.33
-82.23
-93.79
-100.22
-99.23
-89.71
-72.22
-48.78
-22.34
4.04
27.87
47.58
62.53
72.68
78.43
80.31
78.95
75.05
69.38
62.73
55.83
49.28
43.46
38.59
34.66
31.48
28.72
25.97
22.79
18.84
14.00
8.35
2.15
-4.28
-10.69
-17.00
-23.33
-29.97
-37.41
-46.12
-56.27
-67.41
-78.20
-86.52
-89.87
-86.22
-74.73
-56.21
-32.89
-7.77
16.26
37.14
53.80
65.99
73.84
77.57
77.37
73.65
67.07
58.70
49.78
41.50
34.71
29.71
26.28
23.82
21.63
19.18
16.18
12.66
8.76
4.66
0.44
-3.99
-8.78
-14.13
-20.29
-27.56
-36.18
-46.20
-57.14
-67.77
-76.13
-79.98
-77.43
-67.58
-51.04
-29.75
-6.49
15.92
35.31
50.44
60.90
66.81
68.55
66.52
61.26
53.58
44.58
35.57
27.76
21.92
18.19
16.09
14.75
13.27
11.09
8.07
4.43
0.53
-3.37
-7.23
-11.31
-16.04
-21.95
-29.47
-38.84
-49.74
-61.21
-71.56
-78.66
-80.45
-75.58
-63.94
-46.60
-25.69
-3.60
17.51
36.08
51.17
62.26
69.03
71.37
69.42
63.72
55.33
45.65
36.11
27.81
21.35
16.70
13.41
10.84
8.43
5.86
3.09
0.19
-2.73
-5.67
-8.79
-12.36
-16.68
-22.19
-29.30
-38.34
-49.24
-61.13
-72.31
-80.41
-83.12
-78.93
-67.71
-50.81
-30.54
-9.44
10.39
27.60
41.55
52.04
59.05
62.67
63.14
60.93
56.72
51.26
45.32
39.50
34.17
29.55
25.65
22.36
19.47
16.72
13.79
10.47
6.59
2.06
-3.09
-8.80
-15.00
-21.63
-28.70
-36.30
-44.63
-53.83
-63.83
-74.01
-83.09
-89.23
-90.46
-85.38
-73.65
-56.26
-35.21
-12.99
8.17
26.69
41.78
53.26
61.17
65.74
67.22
66.11
63.08
58.99
54.66
50.69
47.31
44.41
41.70
38.91
35.97
33.00
30.24
27.86
25.82
23.77
21.17
17.48
12.30
5.59
-2.31
-10.75
-19.05
-26.63
-33.23
-38.92
-44.09
-49.41
-55.61
-63.31
-72.70
-83.20
-93.37
-101.07
-104.01
-100.49
-89.98
-73.32
-52.46
-29.77
-7.51
12.71
29.91
43.63
53.82
60.62
64.44
65.83
65.46
63.99
61.93
59.64
57.27
54.87
52.39
49.85
47.21
44.47
41.66
38.76
35.68
32.32
28.61
24.53
20.13
15.42
10.38
4.88
-1.22
-7.91
-14.99
-22.07
-28.69
-34.53
-39.53
-44.03
-48.61
-53.98
-60.72
-68.99
-78.27
-87.30
-94.18
-96.86
-93.73
-84.14
-68.68
-49.02
-27.40
-6.09
13.14
29.29
42.03
51.44
57.85
61.62
63.08
62.55
60.35
56.87
52.57
47.92
43.33
39.08
35.31
32.05
29.26
26.96
25.15
23.77
22.68
21.56
20.05
17.76
14.43
9.99
4.56
-1.56
-8.04
-14.50
-20.62
-26.17
-31.17
-35.91
-40.87
-46.69
-53.86
-62.49
-72.04
-81.28
-88.42
-91.53
-89.08
-80.46
-66.21
-47.91
-27.70
-7.68
10.49
25.79
37.82
46.53
52.02
54.51
54.41
52.34
49.14
45.66
42.54
40.11
38.29
36.75
35.09
33.06
30.70
28.20
25.82
23.71
21.77
19.67
17.00
13.33
8.44
2.41
-4.42
-11.58
-18.51
-24.87
-30.55
-35.80
-41.07
-46.92
-53.81
-61.87
-70.67
-79.11
-85.57
-88.23
-85.57
-76.91
-62.67
-44.35
-24.10
-4.12
13.87
28.78
40.19
48.07
52.62
54.15
53.11
50.10
45.93
41.37
37.03
33.21
29.94
27.00
24.19
21.44
18.78
16.39
14.34
12.56
10.70
8.30
4.96
0.60
-4.58
-10.06
-15.28
-19.91
-24.01
-28.04
-32.75
-38.86
-46.86
-56.63
-67.39
-77.66
-85.52
-89.07
-86.90
-78.61
-64.90
-47.42
-28.21
-9.32
7.69
21.86
32.72
40.26
44.66
46.28
45.62
43.24
39.75
35.64
31.32
27.10
23.24
19.93
17.30
15.35
13.89
12.60
11.07
8.98
6.11
2.44
-1.94
-6.82
-12.01
-17.39
-22.96
-28.89
-35.47
-43.06
-51.81
-61.51
-71.27
-79.60
-84.68
-84.77
-78.88
-67.02
-50.32
-30.67
-10.27
8.86
25.28
38.19
47.37
53.00
55.42
55.17
52.82
48.98
44.27
39.27
34.50
30.37
27.08
24.65
22.90
21.46
19.88
17.74
14.73
10.81
6.13
1.02
-4.21
-9.37
-14.46
-19.71
-25.38
-31.87
-39.48
-48.36
-58.29
-68.56
-77.76
-84.06
-85.54
-80.85
-69.75
-53.28
-33.51
-12.92
6.34
22.86
36.06
45.91
52.66
56.45
57.42
55.82
52.09
46.98
41.36
36.07
31.71
28.48
26.17
24.29
22.27
19.66
16.24
12.05
7.27
2.21
-2.91
-7.99
-13.04
-18.23
-23.85
-30.28
-37.91
-46.90
-56.91
-66.85
-74.95
-79.13
-77.64
-69.70
-55.81
-37.69
-17.72
1.82
19.20
33.49
44.34
51.74
55.65
56.17
53.55
48.37
41.64
34.52
28.07
22.92
19.18
16.43
14.03
11.46
8.45
5.13
1.78
-1.35
-4.26
-7.25
-10.83
-15.52
-21.75
-29.75
-39.36
-50.10
-60.95
-70.41
-76.75
-78.34
-74.19
-64.22
-49.44
-31.55
-12.58
5.67
21.85
35.08
44.83
50.81
52.89
51.28
46.56
39.75
32.15
24.99
19.12
14.82
11.80
9.43
7.07
4.38
1.37
-1.64
-4.33
-6.62
-8.87
-11.74
-16.07
-22.60
-31.64
-42.82
-55.00
-66.39
-74.76
-78.13
-75.22
-65.88
-51.09
-32.65
-12.65
7.01
24.92
40.17
52.08
60.15
64.11
63.99
60.31
54.05
46.45
38.67
31.53
25.31
19.91
15.07
10.54
6.25
2.33
-1.10
-4.03
-6.66
-9.54
-13.38
-18.99
-26.97
-37.51
-50.02
-63.12
-74.69
-82.31
-83.97
-78.60
-66.46
-49.02
-28.43
-6.94
13.62
32.00
47.46
59.48
67.73
71.97
72.29
69.22
63.69
56.88
49.85
43.37
37.77
32.96
28.67
24.58
20.53
16.48
12.47
8.51
4.46
0.00
-5.25
-11.79
-20.06
-30.38
-42.67
-56.31
-69.83
-81.09
-87.69
-87.61
-79.91
-65.10
-44.93
-21.90
1.57
23.54
42.81
58.76
71.04
79.45
83.86
84.46
81.81
76.76
70.31
63.40
56.74
50.71
45.45
40.92
36.95
33.28
29.64
25.78
21.50
16.70
11.37
5.51
-0.90
-7.98
-15.93
-25.04
-35.58
-47.70
-61.14
-75.07
-87.88
-97.39
-101.36
-98.02
-86.86
-68.76
-45.79
-20.66
4.06
26.47
45.53
60.86
72.52
80.63
85.35
86.91
85.73
82.49
78.03
73.20
68.63
64.67
61.34
58.52
55.97
53.51
51.00
48.33
45.45
42.25
38.61
34.38
29.40
23.54
16.81
9.32
1.30
-6.95
-15.26
-23.55
-31.80
-40.02
-48.12
-56.03
-63.84
-71.90
-80.72
-90.69
-101.58
-112.21
-120.52
-123.96
-120.40
-108.86
-89.96
-65.73
-39.01
-12.61
11.41
31.87
48.48
61.46
71.22
78.15
82.58
84.71
84.82
83.18
80.16
76.27
72.09
68.15
64.91
62.54
60.94
59.81
58.76
57.38
55.39
52.59
48.91
44.37
39.04
33.03
26.48
19.51
12.24
4.74
-2.86
-10.49
-18.02
-25.29
-32.19
-38.70
-44.99
-51.46
-58.68
-67.22
-77.27
-88.32
-98.96
-107.10
-110.41
-107.07
-96.36
-78.97
-56.79
-32.34
-8.07
14.17
33.31
48.98
61.16
70.02
75.71
78.50
78.75
76.97
73.83
69.92
65.75
61.69
57.93
54.57
51.66
49.22
47.13
45.24
43.30
41.07
38.33
34.95
30.95
26.36
21.25
15.61
9.42
2.62
-4.74
-12.45
-20.19
-27.63
-34.57
-41.06
-47.43
-54.22
-61.99
-71.11
-81.45
-92.25
-102.06
-108.97
-111.05
-106.87
-95.94
-78.89
-57.36
-33.58
-9.83
12.05
30.90
46.23
58.05
66.58
72.12
74.93
75.35
73.80
70.80
66.91
62.69
58.55
54.76
51.45
48.65
46.27
44.12
41.97
39.56
36.79
33.60
30.09
26.34
22.27
17.70
12.41
6.31
-0.44
-7.47
-14.36
-20.79
-26.68
-32.11
-37.29
-42.44
-47.85
-53.88
-60.95
-69.25
-78.45
-87.38
-94.15
-96.61
-93.05
-82.87
-66.83
-46.76
-24.97
-3.66
15.57
31.69
44.23
52.98
57.98
59.52
58.16
54.77
50.28
45.52
41.04
37.09
33.61
30.46
27.54
24.84
22.49
20.70
19.55
18.94
18.46
17.55
15.55
12.04
6.94
0.62
-6.25
-12.88
-18.78
-23.85
-28.55
-33.66
-39.95
-47.88
-57.21
-66.92
-75.35
-80.60
-81.06
-75.78
-64.83
-49.20
-30.60
-11.06
7.48
23.51
36.17
45.13
50.59
52.95
52.76
50.52
46.71
41.80
36.31
30.75
25.60
21.17
17.56
14.68
12.32
10.25
8.28
6.26
4.03
1.45
-1.61
-5.27
-9.52
-14.21
-19.23
-24.50
-30.11
-36.31
-43.41
-51.47
-60.05
-68.04
-73.83
-75.63
-72.07
-62.74
-48.31
-30.47
-11.42
6.72
22.35
34.66
43.51
49.13
51.85
51.94
49.58
45.08
38.96
32.09
25.42
19.81
15.68
12.96
11.09
9.35
7.16
4.28
0.87
-2.72
-6.16
-9.40
-12.66
-16.30
-20.71
-26.09
-32.52
-40.00
-48.41
-57.45
-66.42
-74.06
-78.66
-78.51
-72.49
-60.52
-43.77
-24.28
-4.34
14.04
29.60
41.71
50.19
55.02
56.29
54.23
49.42
42.73
35.31
28.22
22.18
17.39
13.59
10.29
6.96
3.29
-0.69
-4.73
-8.44
-11.59
-14.20
-16.62
-19.42
-23.25
-28.62
-35.79
-44.60
-54.27
-63.52
-70.56
-73.59
-71.24
-63.07
-49.73
-32.81
-14.36
3.78
20.21
34.18
45.32
53.43
58.40
60.16
58.89
55.06
49.47
43.09
36.74
30.98
25.91
21.29
16.70
11.83
6.66
1.42
-3.45
-7.66
-11.21
-14.46
-18.08
-22.86
-29.45
-38.18
-48.88
-60.77
-72.37
-81.69
-86.75
-85.94
-78.60
-65.22
-47.31
-26.99
-6.44
12.55
28.81
41.73
51.02
56.64
58.63
57.30
53.23
47.31
40.59
34.02
28.22
23.34
19.15
15.22
11.16
6.80
2.20
-2.36
-6.68
-10.64
-14.38
-18.26
-22.86
-28.75
-36.43
-46.06
-57.35
-69.37
-80.54
-88.83
-92.20
-89.10
-79.06
-62.85
-42.32
-19.87
2.15
21.96
38.55
51.53
60.86
66.72
69.34
69.12
66.60
62.41
57.18
51.43
45.55
39.76
34.20
28.94
23.97
19.17
14.35
9.29
3.87
-1.96
-8.12
-14.52
-21.07
-27.86
-35.13
-43.25
-52.66
-63.71
-76.29
-89.65
-102.22
-111.79
-116.03
-113.10
-102.23
-83.99
-60.20
-33.31
-5.90
19.85
42.40
60.85
74.83
84.39
89.85
91.80
90.97
88.16
84.12
79.44
74.55
69.66
64.86
60.14
55.55
51.20
47.25
43.82
40.82
37.86
34.29
29.45
22.89
14.67
5.31
-4.36
-13.55
-21.81
-29.25
-36.55
-44.71
-54.76
-67.27
-81.88
-97.07
-110.26
-118.44
-118.95
-110.39
-93.11
-69.07
-41.26
-12.81
13.73
36.77
55.54
69.89
79.98
86.13
88.77
88.49
86.02
82.15
77.61
72.98
68.54
64.31
60.07
55.57
50.71
45.66
40.79
36.56
33.14
30.33
27.48
23.74
18.44
11.30
2.67
-6.75
-16.08
-24.76
-32.65
-40.10
-47.82
-56.59
-67.00
-79.16
-92.48
-105.52
-116.11
-121.85
-120.60
-111.23
-93.99
-70.53
-43.43
-15.52
10.77
33.75
52.53
66.80
76.64
82.37
84.54
83.91
81.38
77.85
74.00
70.22
66.52
62.68
58.51
53.98
49.30
44.86
40.99
37.80
35.05
32.20
28.58
23.64
17.16
9.30
0.61
-8.26
-16.68
-24.39
-31.53
-38.65
-46.53
-55.89
-66.90
-79.01
-90.77
-100.09
-104.70
-102.78
-93.50
-77.30
-55.81
-31.48
-6.91
15.64
34.64
49.36
59.76
66.21
69.22
69.36
67.18
63.20
58.00
52.15
46.25
40.75
35.98
32.07
28.89
26.21
23.70
21.12
18.28
15.03
11.23
6.81
1.76
-3.82
-9.70
-15.68
-21.69
-28.00
-35.11
-43.61
-53.72
-64.90
-75.67
-83.84
-87.04
-83.48
-72.60
-55.26
-33.56
-10.19
12.30
31.97
47.79
59.45
67.09
71.00
71.54
69.10
64.18
57.53
49.93
42.23
35.09
28.94
23.85
19.63
15.84
12.06
8.01
3.60
-1.00
-5.51
-9.75
-13.73
-17.68
-22.12
-27.58
-34.58
-43.38
-53.78
-64.98
-75.55
-83.56
-86.97
-84.26
-74.90
-59.48
-39.69
-17.72
4.23
24.38
41.50
54.82
63.93
68.65
69.12
65.86
59.80
52.08
43.88
36.13
29.38
23.74
19.01
14.80
10.80
6.81
2.86
-0.97
-4.56
-7.94
-11.27
-14.89
-19.24
-24.79
-31.94
-40.80
-51.09
-61.88
-71.64
-78.50
-80.58
-76.64
-66.37
-50.63
-31.19
-10.19
10.29
28.66
43.92
55.51
63.13
66.72
66.34
62.44
55.90
47.91
39.73
32.36
26.25
21.27
16.93
12.65
8.09
3.23
-1.70
-6.39
-10.64
-14.51
-18.29
-22.53
-27.89
-35.01
-44.20
-55.16
-66.83
-77.42
-84.74
-86.82
-82.39
-71.32
-54.60
-34.08
-11.98
9.60
29.01
45.16
57.48
65.71
69.86
70.09
66.81
60.74
52.90
44.45
36.46
29.61
24.06
19.49
15.29
10.95
6.26
1.39
-3.23
-7.24
-10.55
-13.49
-16.78
-21.35
-28.03
-37.31
-48.99
-62.03
-74.63
-84.48
-89.24
-87.22
-77.82
-61.83
-41.09
-18.09
4.71
25.40
42.79
56.34
65.88
71.42
73.07
71.11
66.16
59.19
51.38
43.83
37.24
31.75
27.03
22.55
17.86
12.86
7.71
2.72
-1.90
-6.23
-10.55
-15.30
-20.90
-27.69
-36.04
-46.20
-58.14
-71.28
-84.18
-94.65
-100.14
-98.49
-88.75
-71.56
-49.04
-24.08
0.44
22.38
40.62
54.99
65.71
73.11
77.36
78.61
77.03
73.14
67.70
61.64
55.71
50.32
45.44
40.67
35.58
29.82
23.40
16.58
9.76
3.28
-2.73
-8.41
-14.05
-20.10
-26.95
-35.01
-44.59
-55.87
-68.64
-81.98
-94.25
-103.18
-106.43
-102.27
-90.16
-71.06
-47.05
-20.80
5.15
28.82
49.00
65.05
76.78
84.26
87.81
88.00
85.66
81.64
76.76
71.56
66.28
60.88
55.22
49.22
43.06
37.13
31.86
27.57
24.18
21.20
17.85
13.38
7.39
0.04
-8.07
-16.23
-23.89
-30.97
-37.83
-45.11
-53.52
-63.61
-75.53
-88.82
-102.25
-113.73
-120.75
-120.92
-112.74
-96.22
-72.90
-45.46
-16.94
10.02
33.64
53.04
68.01
78.73
85.55
88.91
89.36
87.52
84.08
79.64
74.82
70.13
65.94
62.40
59.43
56.74
54.03
51.03
47.73
44.26
40.75
37.21
33.36
28.84
23.27
16.52
8.77
0.43
-8.00
-16.22
-24.15
-31.90
-39.68
-47.72
-56.35
-65.95
-76.85
-89.03
-101.72
-113.15
-120.84
-122.16
-115.32
-100.03
-77.67
-50.82
-22.44
4.81
29.17
49.64
65.80
77.58
85.11
88.79
89.17
87.08
83.33
78.71
73.82
69.12
64.85
61.09
57.69
54.43
51.07
47.51
43.84
40.27
36.97
33.93
30.82
27.06
22.09
15.59
7.70
-1.08
-10.02
-18.50
-26.18
-33.12
-39.64
-46.21
-53.29
-61.28
-70.40
-80.60
-91.28
-101.20
-108.51
-111.07
-107.13
-95.90
-77.89
-54.90
-29.42
-4.08
18.98
38.42
53.72
64.94
72.39
76.55
77.90
76.94
74.26
70.48
66.21
61.98
58.10
54.67
51.52
48.39
45.07
41.46
37.72
34.04
30.63
27.46
24.31
20.78
16.40
10.86
4.16
-3.42
-11.32
-18.96
-25.84
-31.73
-36.73
-41.26
-46.02
-51.71
-58.88
-67.67
-77.53
-87.23
-94.92
-98.59
-96.57
-88.06
-73.44
-54.13
-32.26
-10.07
10.49
28.09
42.04
52.14
58.60
61.81
62.32
60.79
57.89
54.21
50.22
46.15
42.10
38.03
33.94
29.83
25.83
22.09
18.66
15.50
12.38
9.00
5.14
0.71
-4.19
-9.29
-14.27
-18.86
-23.00
-26.81
-30.70
-35.19
-40.86
-47.96
-56.23
-64.70
-71.75
-75.46
-74.15
-67.03
-54.41
-37.67
-18.82
0.04
17.26
31.75
43.01
50.83
55.24
56.43
54.80
51.00
45.87
40.22
34.72
29.75
25.46
21.81
18.70
15.99
13.50
11.02
8.31
5.15
1.40
-2.92
-7.70
-12.72
-17.85
-22.97
-28.14
-33.53
-39.41
-46.12
-53.79
-62.16
-70.41
-77.12
-80.58
-79.24
-72.25
-59.75
-42.94
-23.71
-4.17
13.89
29.26
41.36
50.04
55.33
57.36
56.31
52.55
46.78
39.93
32.99
26.77
21.65
17.60
14.27
11.22
8.07
4.70
1.12
-2.55
-6.20
-9.85
-13.59
-17.62
-22.15
-27.37
-33.48
-40.66
-48.97
-58.14
-67.40
-75.42
-80.44
-80.83
-75.53
-64.52
-48.83
-30.24
-10.84
7.59
23.73
36.78
46.37
52.34
54.77
53.93
50.37
44.90
38.47
32.05
26.34
21.69
18.00
14.84
11.70
8.17
4.15
-0.17
-4.33
-8.00
-11.09
-13.93
-17.12
-21.39
-27.35
-35.27
-44.99
-55.84
-66.68
-75.97
-81.89
-82.86
-77.85
-66.76
-50.63
-31.27
-10.91
8.46
25.40
39.13
49.36
56.02
59.12
58.77
55.34
49.56
42.39
34.90
27.92
21.81
16.57
11.86
7.35
2.87
-1.48
-5.43
-8.72
-11.27
-13.38
-15.66
-18.98
-24.19
-31.94
-42.34
-54.86
-68.22
-80.47
-89.38
-92.86
-89.54
-79.16
-62.70
-42.15
-19.91
1.74
21.13
37.30
49.88
58.78
64.03
65.79
64.46
60.74
55.59
49.99
44.68
39.91
35.51
31.06
26.08
20.36
13.98
7.29
0.73
-5.34
-10.78
-15.76
-20.80
-26.63
-34.01
-43.53
-55.27
-68.64
-82.19
-93.83
-101.18
-102.15
-95.51
-81.33
-60.96
-36.76
-11.40
12.65
33.67
50.78
63.80
72.98
78.74
81.47
81.49
79.14
74.85
69.17
62.78
56.32
50.32
45.04
40.44
36.29
32.21
27.87
23.01
17.51
11.36
4.52
-2.89
-10.83
-19.23
-28.13
-37.67
-48.18
-60.07
-73.51
-88.05
-102.31
-114.00
-120.34
-118.94
-108.62
-89.88
-64.89
-36.73
-8.53
17.40
39.78
58.24
72.82
83.63
90.70
94.11
94.31
92.09
88.54
84.58
80.80
77.27
73.67
69.66
65.07
60.05
54.99
50.33
46.32
42.90
39.68
36.05
31.39
25.25
17.50
8.39
-1.47
-11.37
-20.70
-29.19
-37.00
-44.71
-53.18
-63.23
-75.42
-89.57
-104.59
-118.45
-128.47
-132.06
-127.41
-114.00
-92.83
-66.06
-36.49
-6.85
20.59
44.36
63.70
78.41
88.66
94.87
97.59
97.47
95.27
91.76
87.63
83.46
79.56
76.06
72.87
69.79
66.64
63.32
59.84
56.21
52.43
48.46
44.15
39.38
34.02
27.99
21.24
13.72
5.41
-3.64
-13.22
-22.93
-32.33
-41.05
-49.09
-56.87
-65.12
-74.65
-85.97
-98.88
-112.26
-124.16
-132.12
-133.76
-127.42
-112.76
-90.78
-63.67
-34.24
-5.19
21.28
43.83
61.85
75.32
84.55
90.06
92.46
92.36
90.34
86.91
82.55
77.65
72.57
67.60
62.98
58.84
55.35
52.48
50.10
47.95
45.63
42.74
38.96
34.21
28.65
22.54
16.11
9.45
2.49
-4.84
-12.53
-20.39
-28.11
-35.41
-42.17
-48.48
-54.74
-61.58
-69.67
-79.41
-90.62
-102.25
-112.39
-118.60
-118.55
-110.78
-95.12
-72.86
-46.39
-18.55
8.06
31.48
50.65
65.24
75.47
81.79
84.71
84.73
82.45
78.51
73.72
68.84
64.40
60.57
57.27
54.23
51.26
48.38
45.67
43.28
41.23
39.33
37.29
34.77
31.44
27.06
21.49
14.73
6.95
-1.46
-9.98
-18.13
-25.53
-32.15
-38.27
-44.33
-50.95
-58.66
-67.67
-77.87
-88.48
-98.05
-104.62
-106.09
-100.90
-88.53
-69.76
-46.59
-21.60
2.65
24.27
42.14
55.82
65.33
70.83
72.61
71.20
67.38
62.11
56.42
51.08
46.48
42.58
39.04
35.53
31.88
28.22
24.90
22.35
20.67
19.68
18.73
17.09
14.16
9.76
4.15
-2.10
-8.39
-14.34
-19.82
-25.03
-30.27
-35.99
-42.65
-50.51
-59.50
-68.85
-77.18
-82.49
-82.96
-77.34
-65.55
-48.73
-28.86
-8.24
11.09
27.64
40.65
49.78
55.10
56.89
55.64
52.05
46.95
41.24
35.68
30.80
26.75
23.43
20.58
17.95
15.44
13.00
10.63
8.17
5.41
2.08
-2.00
-6.82
-12.22
-17.90
-23.66
-29.43
-35.33
-41.64
-48.70
-56.76
-65.71
-74.81
-82.71
-87.55
-87.59
-81.69
-69.80
-53.02
-33.32
-12.96
6.06
22.36
35.22
44.45
50.16
52.68
52.36
49.72
45.40
40.06
34.39
28.97
24.24
20.35
17.28
14.80
12.59
10.30
7.62
4.29
0.19
-4.70
-10.23
-16.24
-22.46
-28.69
-34.83
-41.09
-47.92
-55.91
-65.51
-76.56
-88.10
-98.19
-104.47
-104.73
-97.63
-83.27
-63.07
-39.47
-15.13
7.62
27.11
42.42
53.27
59.85
62.67
62.45
59.95
55.87
50.78
45.08
39.15
33.32
27.96
23.32
19.41
15.95
12.52
8.67
4.19
-0.92
-6.42
-12.15
-18.00
-24.04
-30.42
-37.33
-44.95
-53.53
-63.37
-74.63
-86.95
-99.10
-108.95
-113.92
-111.79
-101.47
-83.53
-59.95
-33.57
-7.20
17.02
37.85
54.77
67.71
76.72
82.00
83.86
82.81
79.49
74.60
68.78
62.52
56.15
49.96
44.16
38.90
34.24
30.01
25.93
21.61
16.78
11.30
5.24
-1.22
-7.88
-14.69
-21.74
-29.31
-37.85
-47.85
-59.65
-73.06
-86.99
-99.45
-107.75
-109.31
-102.41
-86.85
-64.14
-37.01
-8.72
17.84
40.71
58.92
72.33
81.22
86.02
87.30
85.68
81.91
76.77
70.94
64.83
58.62
52.37
46.11
40.03
34.37
29.33
24.94
20.93
16.83
12.12
6.39
-0.47
-8.25
-16.51
-24.79
-32.84
-40.85
-49.37
-59.14
-70.70
-83.87
-97.44
-109.28
-116.70
-117.19
-109.23
-92.72
-69.13
-41.13
-11.88
15.72
39.53
58.39
72.09
80.97
85.68
86.89
85.16
81.02
75.06
67.93
60.38
53.08
46.42
40.48
35.04
29.79
24.56
19.36
14.25
9.30
4.43
-0.59
-5.91
-11.62
-17.70
-24.26
-31.67
-40.65
-51.84
-65.26
-79.84
-93.25
-102.49
-104.72
-98.25
-83.15
-61.18
-35.15
-8.07
17.55
40.05
58.55
72.64
82.10
86.96
87.45
84.18
78.13
70.49
62.48
55.07
48.76
43.61
39.26
35.22
31.09
26.70
22.14
17.62
13.25
9.01
4.71
0.02
-5.45
-12.08
-20.32
-30.54
-42.74
-56.23
-69.35
-79.62
-84.36
-81.46
-70.20
-51.58
-28.01
-2.62
21.65
42.65
59.26
71.15
78.46
81.50
80.64
76.39
69.54
61.15
52.42
44.45
37.96
33.15
29.66
26.77
23.80
20.29
16.14
11.59
6.94
2.37
-2.22
-7.07
-12.62
-19.25
-27.31
-37.01
-48.41
-61.14
-74.20
-85.82
-93.68
-95.48
-89.59
-75.78
-55.37
-30.90
-5.40
18.34
38.46
54.07
65.01
71.50
73.80
72.23
67.24
59.56
50.35
40.95
32.59
26.03
21.36
18.00
15.06
11.73
7.56
2.65
-2.54
-7.49
-11.91
-15.90
-19.91
-24.53
-30.44
-38.18
-48.05
-59.92
-72.94
-85.43
-94.97
-99.00
-95.52
-83.86
-64.96
-41.13
-15.36
9.55
31.50
49.31
62.47
70.89
74.64
73.94
69.35
61.81
52.57
43.10
34.61
27.87
22.98
19.44
16.45
13.16
9.16
4.41
-0.74
-5.88
-10.75
-15.46
-20.35
-25.93
-32.68
-41.04
-51.37
-63.72
-77.64
-91.84
-104.09
-111.59
-111.67
-102.77
-85.00
-60.30
-31.80
-2.90
23.58
45.93
63.55
76.44
84.87
89.06
89.26
85.92
79.82
72.09
63.87
56.14
49.43
43.89
39.38
35.70
32.70
30.17
27.79
25.05
21.34
16.22
9.59
1.74
-6.72
-15.23
-23.51
-31.76
-40.60
-50.93
-63.46
-78.28
-94.50
-110.05
-121.93
-126.97
-122.77
-108.57
-85.50
-56.34
-24.61
6.39
34.24
57.60
76.04
89.60
98.53
103.25
104.32
102.51
98.71
93.76
88.32
82.82
77.51
72.55
68.05
64.08
60.68
57.71
54.91
51.96
48.51
44.37
39.54
34.17
28.48
22.62
16.54
10.00
2.66
-5.72
-15.06
-24.96
-34.76
-43.91
-52.14
-59.66
-67.14
-75.48
-85.49
-97.63
-111.55
-125.94
-138.58
-146.73
-147.71
-139.78
-122.64
-97.66
-67.50
-35.38
-4.34
23.36
46.41
64.36
77.33
85.80
90.45
92.01
91.17
88.56
84.66
79.90
74.64
69.23
63.99
59.16
54.90
51.16
47.81
44.62
41.36
37.82
33.85
29.31
24.17
18.46
12.23
5.52
-1.62
-9.18
-17.12
-25.33
-33.53
-41.39
-48.63
-55.21
-61.48
-68.19
-76.28
-86.53
-99.12
-113.23
-126.96
-137.62
-142.30
-138.76
-126.04
-104.82
-77.24
-46.28
-14.98
14.16
39.50
60.22
76.08
87.22
94.01
96.98
96.86
94.43
90.52
85.79
80.77
75.83
71.23
67.14
63.61
60.57
57.91
55.44
52.99
50.43
47.65
44.48
40.69
36.03
30.31
23.53
15.83
7.48
-1.26
-10.11
-18.93
-27.56
-35.88
-43.82
-51.51
-59.35
-67.98
-78.09
-89.95
-103.08
-115.91
-126.01
-130.62
-127.47
-115.57
-95.49
-69.26
-39.73
-9.83
18.02
42.20
61.79
76.44
86.17
91.27
92.34
90.19
85.79
80.04
73.76
67.60
62.00
57.26
53.51
50.64
48.38
46.30
44.03
41.37
38.35
35.10
31.78
28.38
24.66
20.29
14.92
8.36
0.72
-7.61
-16.08
-24.18
-31.62
-38.40
-44.82
-51.42
-58.88
-67.84
-78.66
-91.13
-104.22
-115.98
-123.82
-125.17
-118.26
-102.78
-80.02
-52.54
-23.39
4.65
29.62
50.37
66.45
77.76
84.42
86.74
85.31
80.99
74.87
68.08
61.52
55.75
50.96
46.94
43.44
40.18
37.05
34.10
31.44
29.08
26.86
24.39
21.21
16.86
11.12
4.08
-3.75
-11.71
-19.18
-25.87
-31.88
-37.79
-44.30
-52.14
-61.64
-72.68
-84.49
-95.69
-104.39
-108.52
-106.35
-96.97
-80.61
-58.70
-33.46
-7.45
17.01
38.13
54.77
66.35
72.83
74.62
72.51
67.60
61.09
54.09
47.38
41.37
36.21
31.80
28.04
24.80
22.09
19.84
17.95
16.11
13.88
10.84
6.66
1.34
-4.84
-11.37
-17.79
-23.82
-29.55
-35.43
-42.08
-50.18
-60.03
-71.28
-82.70
-92.19
-97.24
-95.60
-86.09
-69.10
-46.53
-21.30
3.52
25.49
43.22
56.26
64.78
69.15
69.70
66.76
60.87
52.85
43.84
35.03
27.36
21.40
17.17
14.38
12.52
11.12
9.78
8.15
5.93
2.94
-0.88
-5.40
-10.40
-15.72
-21.38
-27.60
-34.75
-43.23
-53.24
-64.58
-76.45
-87.34
-95.22
-97.91
-93.70
-81.96
-63.50
-40.38
-15.35
8.87
30.27
47.73
60.84
69.59
74.06
74.35
70.72
63.81
54.68
44.72
35.28
27.37
21.46
17.34
14.39
11.79
8.83
5.13
0.70
-4.23
-9.30
-14.33
-19.37
-24.75
-30.93
-38.42
-47.65
-58.70
-71.19
-83.97
-95.22
-102.60
-103.87
-97.59
-83.67
-63.54
-39.67
-14.89
8.40
28.65
45.15
57.73
66.40
71.13
71.95
69.08
63.15
55.19
46.41
38.01
30.77
25.01
20.52
16.81
13.33
9.64
5.63
1.37
-2.98
-7.39
-12.03
-17.30
-23.69
-31.69
-41.72
-53.93
-68.05
-83.13
-97.39
-108.44
-113.67
-111.08
-99.88
-80.91
-56.36
-29.15
-2.13
22.52
43.48
60.20
72.57
80.73
85.05
86.03
84.28
80.51
75.34
69.33
62.91
56.47
50.40
45.02
40.54
36.88
33.66
30.31
26.23
20.93
14.24
6.30
-2.45
-11.53
-20.51
-29.19
-37.68
-46.46
-56.33
-68.07
-82.01
-97.57
-112.94
-125.25
-131.27
-128.47
-115.89
-94.57
-67.22
-37.28
-7.96
18.58
41.31
60.11
75.15
86.64
94.70
99.47
101.26
100.66
98.38
95.10
91.38
87.45
83.45
79.48
75.76
72.63
70.36
69.01
68.23
67.33
65.41
61.78
56.18
48.93
40.80
32.66
25.16
18.50
12.37
6.11
-1.04
-9.55
-19.51
-30.39
-41.43
-51.81
-61.07
-69.27
-77.07
-85.48
-95.51
-107.73
-121.82
-136.35
-148.94
-156.70
-157.06
-148.48
-130.94
-105.96
-76.13
-44.36
-13.30
15.12
39.74
60.06
76.05
88.01
96.47
102.02
105.27
106.72
106.76
105.74
103.90
101.47
98.64
95.54
92.35
89.27
86.51
84.19
82.16
79.99
77.04
72.72
66.69
59.16
50.71
42.09
33.90
26.28
18.95
11.38
3.09
-6.05
-15.83
-25.71
-35.07
-43.52
-50.96
-57.69
-64.40
-71.97
-81.28
-92.78
-106.19
-120.12
-132.23
-139.66
-139.84
-131.27
-114.03
-89.75
-61.07
-30.93
-1.88
24.34
46.76
65.02
79.09
89.14
95.43
98.38
98.59
96.80
93.71
89.99
86.11
82.30
78.68
75.30
72.31
69.86
68.11
67.00
66.20
65.15
63.16
59.71
54.65
48.12
40.66
32.86
25.21
17.95
10.99
4.07
-3.20
-11.12
-19.72
-28.73
-37.62
-45.81
-52.88
-58.85
-64.24
-69.97
-77.12
-86.45
-97.91
-110.37
-121.69
-129.11
-130.10
-123.03
-107.67
-85.41
-58.66
-30.33
-3.03
21.31
41.68
57.65
69.32
76.94
80.91
81.80
80.34
77.40
73.79
70.14
66.77
63.74
60.99
58.46
56.18
54.27
52.82
51.72
50.69
49.27
46.96
43.53
38.95
33.48
27.50
21.32
15.12
8.80
2.16
-5.00
-12.70
-20.74
-28.72
-36.20
-42.85
-48.60
-53.80
-59.11
-65.37
-73.31
-83.15
-94.24
-105.00
-113.15
-116.35
-112.79
-101.81
-84.10
-61.47
-36.36
-11.23
11.87
31.52
47.05
58.32
65.60
69.39
70.35
69.21
66.68
63.47
60.11
56.98
54.28
52.01
50.10
48.45
47.04
45.84
44.73
43.51
41.89
39.58
36.42
32.47
27.97
23.21
18.40
13.55
8.48
2.91
-3.36
-10.31
-17.72
-25.25
-32.60
-39.52
-46.02
-52.29
-58.74
-65.84
-73.92
-82.91
-92.04
-99.88
-104.50
-104.09
-97.44
-84.41
-65.99
-43.98
-20.57
2.15
22.44
39.14
51.62
59.79
63.99
64.82
63.10
59.64
55.14
50.25
45.46
41.23
37.83
35.40
33.83
32.92
32.30
31.64
30.67
29.24
27.32
24.92
22.06
18.67
14.63
9.83
4.21
-2.07
-8.74
-15.46
-21.97
-28.13
-34.01
-39.77
-45.62
-51.78
-58.45
-65.73
-73.46
-80.99
-87.14
-90.30
-88.89
-81.82
-68.99
-51.34
-30.72
-9.25
11.07
28.77
42.96
53.26
59.58
62.08
61.14
57.36
51.59
44.88
38.18
32.19
27.31
23.48
20.46
17.95
15.71
13.71
11.95
10.43
8.97
7.21
4.73
1.22
-3.37
-8.82
-14.65
-20.34
-25.51
-30.07
-34.25
-38.55
-43.49
-49.52
-56.79
-65.04
-73.52
-81.00
-85.86
-86.47
-81.61
-70.91
-54.99
-35.45
-14.38
6.09
24.31
39.21
50.34
57.56
60.98
60.89
57.74
52.27
45.40
38.08
31.11
24.99
19.84
15.58
11.98
8.90
6.24
3.93
1.87
-0.17
-2.54
-5.57
-9.51
-14.36
-19.87
-25.61
-31.22
-36.51
-41.68
-47.15
-53.46
-60.96
-69.45
-77.99
-84.99
-88.56
-86.93
-79.16
-65.37
-46.81
-25.56
-4.01
15.74
32.21
44.68
53.09
57.70
58.97
57.42
53.56
47.95
41.25
34.12
27.17
20.90
15.65
11.53
8.54
6.48
5.03
3.67
1.87
-0.78
-4.47
-9.08
-14.25
-19.57
-24.84
-30.09
-35.67
-42.09
-49.91
-59.44
-70.52
-82.25
-92.95
-100.45
-102.52
-97.64
-85.43
-66.95
-44.31
-20.17
3.00
23.37
39.94
52.36
60.77
65.53
67.07
65.87
62.50
57.58
51.71
45.48
39.36
33.73
28.86
24.86
21.77
19.36
17.23
14.81
11.58
7.12
1.34
-5.52
-13.00
-20.60
-27.96
-34.98
-41.90
-49.28
-57.86
-68.21
-80.38
-93.43
-105.41
-113.68
-115.69
-109.78
-95.75
-74.95
-49.80
-23.10
2.64
25.56
44.58
59.22
69.49
75.72
78.48
78.55
76.69
73.57
69.66
65.23
60.44
55.40
50.29
45.32
40.73
36.65
33.07
29.75
26.29
22.19
17.04
10.61
3.00
-5.42
-14.13
-22.65
-30.78
-38.68
-46.94
-56.31
-67.46
-80.55
-94.85
-108.71
-119.60
-124.85
-122.21
-110.72
-90.97
-65.04
-35.90
-6.63
20.29
43.33
61.84
75.87
85.65
91.53
93.90
93.25
90.31
85.92
80.99
76.17
71.81
67.86
64.12
60.34
56.46
52.64
49.15
46.25
43.91
41.74
39.01
34.94
28.95
20.89
11.08
0.22
-10.84
-21.48
-31.31
-40.40
-49.16
-58.22
-68.33
-80.06
-93.43
-107.63
-120.91
-130.70
-134.31
-129.76
-116.36
-95.12
-68.36
-39.05
-10.08
16.42
39.22
57.78
72.02
81.98
87.88
90.07
89.16
86.03
81.65
76.91
72.44
68.53
65.15
62.04
59.00
55.80
52.48
49.11
45.75
42.45
39.13
35.53
31.33
26.15
19.78
12.19
3.62
-5.49
-14.64
-23.42
-31.64
-39.44
-47.18
-55.44
-64.86
-75.97
-88.86
-102.87
-116.42
-127.11
-132.21
-129.53
-118.09
-98.55
-73.00
-44.37
-15.51
11.28
34.59
53.81
68.70
79.31
85.81
88.59
88.30
85.77
81.95
77.65
73.46
69.59
65.99
62.46
58.85
55.19
51.66
48.47
45.69
43.12
40.35
36.81
32.03
25.73
17.92
8.85
-0.97
-10.92
-20.45
-29.19
-37.15
-44.63
-52.38
-61.14
-71.61
-83.87
-97.23
-110.08
-120.07
-124.67
-121.84
-110.69
-91.79
-67.10
-39.31
-11.22
14.84
37.33
55.41
68.79
77.52
81.95
82.69
80.69
76.99
72.55
68.09
63.94
60.06
56.23
52.23
48.03
43.81
39.90
36.63
34.10
32.01
29.75
26.51
21.64
14.87
6.47
-2.87
-12.33
-21.18
-29.21
-36.60
-43.92
-51.99
-61.53
-72.87
-85.66
-98.70
-109.92
-116.91
-117.43
-110.15
-95.11
-73.67
-48.14
-21.13
5.02
28.59
48.53
64.32
75.80
83.03
86.28
86.14
83.39
79.04
74.04
69.12
64.70
60.77
57.10
53.39
49.47
45.41
41.41
37.72
34.34
30.96
27.02
21.90
15.18
6.89
-2.52
-12.25
-21.52
-29.79
-36.99
-43.48
-50.01
-57.44
-66.53
-77.58
-90.16
-102.91
-113.66
-119.83
-119.14
-110.30
-93.43
-70.09
-42.81
-14.41
12.60
36.44
56.09
71.09
81.40
87.24
88.99
87.28
83.00
77.24
71.05
65.29
60.39
56.29
52.67
49.11
45.43
41.80
38.57
35.98
33.90
31.71
28.54
23.62
16.66
8.02
-1.47
-10.84
-19.39
-26.95
-33.85
-40.78
-48.52
-57.71
-68.62
-80.89
-93.39
-104.28
-111.21
-111.98
-105.14
-90.50
-69.29
-43.86
-16.99
8.74
31.41
49.90
63.77
73.00
77.81
78.66
76.27
71.62
65.81
59.82
54.34
49.52
45.20
41.04
36.86
32.78
29.14
26.26
24.15
22.44
20.39
17.27
12.61
6.37
-1.01
-8.93
-16.78
-24.18
-31.09
-37.88
-45.13
-53.57
-63.57
-74.85
-86.17
-95.46
-100.21
-98.30
-88.70
-71.81
-49.42
-24.11
1.42
24.85
44.58
59.73
69.95
75.32
76.29
73.61
68.29
61.44
54.08
46.97
40.55
34.98
30.25
26.37
23.35
21.13
19.53
18.14
16.41
13.81
10.03
5.07
-0.75
-7.01
-13.31
-19.50
-25.69
-32.26
-39.73
-48.55
-58.90
-70.37
-81.78
-91.21
-96.34
-95.05
-86.17
-69.88
-47.86
-22.83
2.20
24.71
43.04
56.57
65.39
69.94
70.83
68.59
63.79
57.13
49.38
41.38
33.90
27.59
22.80
19.60
17.78
16.83
16.16
15.16
13.34
10.41
6.27
1.01
-5.13
-11.82
-18.77
-25.74
-32.81
-40.36
-48.94
-59.04
-70.51
-82.31
-92.41
-98.31
-97.69
-89.28
-73.29
-51.37
-26.18
-0.59
22.93
42.75
58.04
68.62
74.70
76.71
75.24
71.00
64.89
57.79
50.55
43.86
38.08
33.34
29.51
26.35
23.48
20.63
17.44
13.69
9.26
4.17
-1.40
-7.28
-13.26
-19.33
-25.56
-32.26
-39.82
-48.71
-59.13
-70.83
-82.83
-93.33
-100.01
-100.58
-93.50
-78.59
-57.21
-31.91
-5.80
18.33
38.52
53.93
64.57
70.97
73.82
73.75
71.35
67.20
61.86
55.92
49.77
43.66
37.79
32.30
27.39
23.20
19.76
16.79
13.89
10.51
6.26
1.09
-4.83
-11.11
-17.45
-23.78
-30.31
-37.50
-45.92
-56.01
-67.75
-80.42
-92.39
-101.39
-104.91
-101.03
-89.02
-69.68
-45.17
-18.31
8.08
31.80
51.55
66.76
77.43
83.77
86.21
85.34
81.91
76.79
70.83
64.68
58.71
53.06
47.65
42.47
37.63
33.39
30.06
27.70
26.04
24.38
21.86
17.69
11.51
3.49
-5.71
-15.25
-24.35
-32.58
-40.02
-47.14
-54.69
-63.43
-73.84
-85.73
-98.01
-108.60
-114.95
-114.63
-106.21
-89.74
-66.89
-40.41
-13.26
12.00
33.84
51.59
65.16
74.77
80.68
83.24
82.88
80.29
76.32
71.82
67.49
63.66
60.32
57.17
53.85
50.20
46.29
42.43
39.04
36.27
33.97
31.60
28.41
23.76
17.41
9.60
0.89
-8.07
-16.78
-25.07
-33.05
-40.95
-49.14
-57.89
-67.51
-78.18
-89.65
-101.01
-110.57
-116.13
-115.51
-107.38
-91.73
-69.96
-44.55
-18.29
6.36
27.74
45.04
58.12
67.19
72.62
74.91
74.60
72.36
68.92
64.95
60.94
57.25
53.96
51.05
48.46
46.08
43.84
41.64
39.35
36.88
34.13
31.02
27.45
23.26
18.23
12.16
5.06
-2.94
-11.46
-20.01
-28.15
-35.56
-42.16
-48.12
-53.90
-60.18
-67.64
-76.72
-87.21
-98.03
-107.21
-112.32
-111.19
-102.56
-86.60
-64.84
-39.72
-13.88
10.39
31.58
48.91
62.09
71.18
76.43
78.23
77.17
73.98
69.43
64.26
59.05
54.25
50.05
46.49
43.37
40.45
37.46
34.27
30.85
27.34
23.89
20.54
17.23
13.67
9.54
4.57
-1.29
-7.88
-14.84
-21.81
-28.44
-34.60
-40.36
-45.96
-51.89
-58.67
-66.78
-76.29
-86.63
-96.38
-103.49
-105.77
-101.59
-90.40
-72.97
-51.18
-27.42
-4.02
17.18
35.06
49.07
59.08
65.20
67.73
67.13
64.09
59.55
54.39
49.37
44.93
41.18
37.94
35.02
32.30
29.82
27.71
26.04
24.77
23.59
22.07
19.68
16.03
10.91
4.43
-3.01
-10.80
-18.35
-25.25
-31.39
-37.08
-42.89
-49.60
-57.88
-68.00
-79.55
-91.27
-101.20
-107.01
-106.72
-99.25
-84.83
-64.90
-41.70
-17.67
5.15
25.28
41.83
54.38
62.83
67.35
68.38
66.67
63.12
58.62
53.89
49.36
45.14
41.20
37.36
33.52
29.76
26.24
23.18
20.64
18.37
15.86
12.48
7.75
1.58
-5.61
-13.13
-20.29
-26.67
-32.29
-37.48
-42.84
-49.04
-56.67
-66.00
-76.85
-88.25
-98.44
-105.17
-106.20
-100.08
-86.66
-67.25
-44.14
-20.00
2.88
23.01
39.65
52.54
61.67
67.05
68.84
67.43
63.59
58.31
52.60
47.25
42.65
38.84
35.68
33.06
30.97
29.49
28.66
28.24
27.69
26.23
23.17
18.08
11.11
2.87
-5.78
-14.08
-21.69
-28.72
-35.73
-43.38
-52.27
-62.66
-74.25
-86.07
-96.48
-103.35
-104.51
-98.47
-84.87
-64.82
-40.57
-14.94
9.42
30.62
47.61
60.10
68.19
72.13
72.31
69.28
63.81
56.88
49.49
42.46
36.31
31.20
27.11
23.93
21.55
19.80
18.43
16.96
14.86
11.64
7.07
1.22
-5.54
-12.68
-19.71
-26.38
-32.77
-39.31
-46.62
-55.41
-65.92
-77.69
-89.33
-98.55
-102.79
-100.00
-89.33
-71.50
-48.63
-23.58
0.85
22.55
40.33
53.79
62.93
67.91
68.98
66.51
61.13
53.76
45.49
37.42
30.42
24.97
21.13
18.57
16.71
14.94
12.73
9.71
5.74
0.81
-4.96
-11.38
-18.27
-25.46
-32.78
-40.26
-48.19
-57.06
-67.29
-78.81
-90.72
-101.17
-107.71
-107.96
-100.43
-85.11
-63.49
-38.15
-12.02
12.34
33.15
49.45
61.00
67.98
70.75
69.91
66.12
60.17
52.99
45.49
38.55
32.78
28.49
25.51
23.35
21.32
18.77
15.30
10.86
5.71
0.13
-5.67
-11.72
-18.27
-25.67
-34.35
-44.63
-56.76
-70.63
-85.49
-99.74
-111.02
-116.63
-114.25
-102.82
-82.90
-56.67
-27.26
2.10
28.77
51.14
68.55
81.00
88.77
92.27
91.97
88.40
82.22
74.28
65.55
57.01
49.45
43.39
38.94
35.74
33.18
30.48
27.03
22.48
16.82
10.19
2.87
-4.92
-13.09
-21.67
-30.87
-41.04
-52.66
-66.11
-81.27
-97.13
-111.60
-121.72
-124.58
-118.10
-101.88
-77.44
-47.72
-16.22
13.97
40.68
62.78
79.90
92.03
99.40
102.38
101.62
98.08
92.87
87.05
81.36
76.11
71.24
66.54
61.86
57.31
53.17
49.72
46.95
44.42
41.28
36.58
29.65
20.33
9.13
-3.04
-15.14
-26.37
-36.48
-45.78
-55.18
-65.78
-78.45
-93.37
-109.51
-124.63
-135.65
-139.46
-133.85
-118.15
-93.54
-62.67
-28.95
4.33
34.56
60.12
80.34
95.25
105.27
111.00
113.16
112.45
109.57
105.22
100.06
94.70
89.63
85.22
81.67
78.99
77.04
75.58
74.32
72.91
71.04
68.33
64.50
59.36
52.89
45.21
36.54
27.10
17.08
6.59
-4.24
-15.20
-26.00
-36.35
-46.04
-55.09
-63.91
-73.15
-83.65
-96.01
-110.19
-125.09
-138.52
-147.55
-149.30
-141.86
-124.87
-99.74
-69.18
-36.47
-4.67
23.97
48.21
67.67
82.52
93.17
100.10
103.73
104.59
103.26
100.44
96.80
92.91
89.05
85.30
81.65
78.20
75.18
72.82
71.19
69.94
68.43
65.91
61.86
56.20
49.30
41.76
34.08
26.52
18.97
11.12
2.73
-6.32
-15.84
-25.49
-34.84
-43.60
-51.67
-59.24
-66.84
-75.23
-85.17
-97.02
-110.40
-123.85
-134.96
-140.91
-139.16
-128.36
-108.74
-82.10
-51.34
-19.68
10.07
35.94
56.97
72.94
84.14
91.04
94.13
93.97
91.21
86.66
81.18
75.54
70.32
65.83
62.18
59.35
57.34
56.10
55.49
55.14
54.58
53.27
50.86
47.26
42.62
37.23
31.30
24.90
17.91
10.20
1.71
-7.44
-16.93
-26.36
-35.31
-43.48
-50.80
-57.50
-64.07
-71.22
-79.55
-89.34
-100.01
-110.09
-117.35
-119.32
-114.11
-101.03
-80.84
-55.68
-28.31
-1.55
22.35
42.01
56.95
67.29
73.58
76.52
76.84
75.25
72.40
68.86
65.07
61.36
57.90
54.77
51.98
49.59
47.64
46.15
45.03
44.02
42.78
40.94
38.26
34.62
30.05
24.58
18.35
11.42
3.89
-4.11
-12.43
-20.81
-29.00
-36.68
-43.67
-49.89
-55.54
-61.08
-67.14
-74.29
-82.75
-92.09
-101.04
-107.68
-109.91
-105.99
-95.18
-77.90
-55.77
-31.04
-6.12
16.96
36.72
52.31
63.32
69.72
71.82
70.25
65.93
60.04
53.71
47.93
43.25
39.80
37.31
35.31
33.38
31.31
29.14
27.08
25.32
23.97
22.87
21.61
19.69
16.59
12.03
6.07
-0.98
-8.50
-15.90
-22.70
-28.72
-34.05
-39.06
-44.25
-50.16
-57.29
-65.75
-75.04
-83.99
-90.75
-93.33
-90.12
-80.54
-65.18
-45.72
-24.28
-3.01
16.42
32.84
45.55
54.18
58.65
59.26
56.68
51.94
46.17
40.29
34.96
30.38
26.56
23.32
20.58
18.29
16.44
15.01
13.80
12.52
10.76
8.12
4.35
-0.60
-6.51
-12.91
-19.27
-25.16
-30.35
-35.04
-39.77
-45.25
-52.13
-60.57
-70.02
-79.09
-85.77
-87.97
-84.16
-73.91
-58.01
-38.29
-17.08
3.42
21.54
36.26
47.16
54.21
57.64
57.85
55.37
50.81
44.80
37.96
30.84
23.95
17.81
12.79
9.16
6.96
5.89
5.43
4.93
3.76
1.46
-2.14
-6.91
-12.52
-18.56
-24.68
-30.75
-36.92
-43.56
-51.19
-60.12
-70.23
-80.58
-89.47
-94.70
-94.24
-86.91
-72.82
-53.47
-31.25
-8.78
11.76
29.04
42.48
52.08
58.09
60.69
60.09
56.54
50.51
42.75
34.26
26.06
18.99
13.46
9.43
6.46
3.99
1.51
-1.25
-4.34
-7.71
-11.30
-15.15
-19.33
-24.07
-29.57
-36.14
-44.15
-53.79
-64.89
-76.56
-87.17
-94.54
-96.60
-91.93
-80.31
-62.80
-41.40
-18.51
3.63
23.30
39.44
51.53
59.48
63.48
63.90
61.24
56.12
49.29
41.56
33.78
26.71
20.81
16.12
12.26
8.72
5.06
1.15
-2.82
-6.54
-9.88
-13.00
-16.44
-20.87
-26.98
-35.23
-45.82
-58.46
-72.24
-85.53
-96.05
-101.30
-99.27
-89.13
-71.60
-48.75
-23.47
1.47
23.91
42.66
57.27
67.73
74.15
76.70
75.71
71.74
65.59
58.20
50.41
42.83
35.84
29.61
24.13
19.30
14.88
10.51
5.88
0.76
-4.91
-11.01
-17.37
-23.95
-30.90
-38.65
-47.69
-58.50
-71.18
-85.14
-98.97
-110.45
-116.98
-116.26
-107.00
-89.35
-64.97
-36.60
-7.31
20.18
43.92
62.89
76.84
86.03
90.95
92.24
90.63
86.95
82.03
76.64
71.29
66.22
61.36
56.55
51.74
47.07
42.95
39.75
37.53
35.86
33.85
30.47
24.86
16.73
6.37
-5.39
-17.48
-28.98
-39.28
-48.35
-56.71
-65.28
-75.15
-87.21
-101.57
-117.27
-132.10
-143.03
-146.96
-141.63
-126.35
-102.22
-71.85
-38.58
-5.75
24.03
49.17
69.04
83.77
93.93
100.25
103.46
104.23
103.09
100.51
96.93
92.70
88.16
83.59
79.23
75.35
72.21
69.98
68.57
67.62
66.45
64.24
60.35
54.57
47.18
38.92
30.60
22.66
15.11
7.52
-0.65
-9.76
-19.72
-30.11
-40.35
-49.98
-58.87
-67.24
-75.65
-84.92
-95.84
-108.81
-123.41
-138.09
-150.23
-156.63
-154.51
-142.40
-120.71
-91.71
-58.80
-25.58
5.06
31.42
52.88
69.57
81.93
90.42
95.46
97.56
97.33
95.58
93.06
90.33
87.69
85.20
82.78
80.38
77.98
75.59
73.12
70.36
67.03
62.93
57.97
52.25
45.87
38.91
31.31
23.01
13.95
4.25
-5.81
-15.89
-25.66
-34.92
-43.57
-51.72
-59.66
-67.92
-77.23
-88.19
-100.98
-114.80
-127.71
-136.93
-139.58
-133.49
-118.09
-94.57
-65.53
-34.16
-3.51
24.07
47.19
65.25
78.29
86.74
91.30
92.80
92.10
89.93
86.87
83.27
79.42
75.58
72.03
69.04
66.81
65.38
64.52
63.84
62.78
60.83
57.69
53.32
47.90
41.74
35.07
27.99
20.46
12.38
3.65
-5.68
-15.36
-25.06
-34.41
-43.15
-51.28
-59.11
-67.20
-76.26
-86.86
-99.03
-111.96
-123.88
-132.30
-134.63
-128.97
-114.72
-92.88
-65.74
-36.26
-7.33
18.88
41.02
58.56
71.52
80.27
85.34
87.35
86.97
84.79
81.37
77.17
72.60
68.05
63.85
60.28
57.51
55.48
53.99
52.68
51.13
48.98
46.03
42.25
37.74
32.64
27.01
20.76
13.72
5.80
-2.87
-11.95
-20.98
-29.60
-37.58
-45.01
-52.13
-59.43
-67.50
-76.87
-87.73
-99.59
-110.94
-119.46
-122.49
-117.92
-104.95
-84.49
-58.77
-30.78
-3.30
21.56
42.53
59.10
71.14
78.84
82.56
82.86
80.45
76.20
71.00
65.64
60.71
56.47
52.95
49.95
47.25
44.65
42.15
39.78
37.60
35.48
33.07
29.89
25.50
19.63
12.30
3.81
-5.30
-14.42
-22.98
-30.69
-37.52
-43.82
-50.20
-57.34
-65.81
-75.77
-86.74
-97.41
-105.89
-109.93
-107.63
-97.95
-81.18
-58.90
-33.60
-8.02
15.54
35.49
51.07
62.15
68.92
71.80
71.29
68.03
62.81
56.42
49.60
42.90
36.72
31.26
26.71
23.17
20.63
18.95
17.76
16.50
14.59
11.59
7.31
1.90
-4.30
-10.85
-17.41
-23.80
-30.04
-36.45
-43.46
-51.73
-61.55
-72.65
-83.82
-92.94
-97.49
-95.32
-85.45
-68.48
-46.44
-22.12
1.67
22.78
39.98
52.76
61.11
65.27
65.64
62.80
57.57
50.95
43.87
37.06
30.99
25.83
21.55
18.09
15.28
12.92
10.70
8.31
5.45
1.96
-2.21
-6.99
-12.31
-18.15
-24.53
-31.59
-39.58
-48.79
-59.38
-71.05
-82.72
-92.52
-98.08
-97.22
-88.75
-72.92
-51.41
-26.86
-2.19
20.27
38.98
53.26
63.07
68.65
70.39
68.65
63.97
57.03
48.71
39.99
31.84
24.93
19.51
15.35
11.88
8.43
4.55
0.15
-4.52
-9.06
-13.23
-17.14
-21.23
-26.14
-32.52
-40.82
-51.20
-63.40
-76.57
-89.13
-98.89
-103.46
-100.88
-90.37
-72.62
-49.67
-24.33
0.60
23.00
41.61
55.90
65.81
71.37
72.73
70.20
64.39
56.31
47.23
38.39
30.76
24.74
20.14
16.33
12.61
8.46
3.78
-1.13
-5.90
-10.31
-14.57
-19.20
-24.98
-32.59
-42.45
-54.57
-68.47
-83.01
-96.45
-106.50
-110.81
-107.59
-96.15
-77.30
-53.14
-26.47
-0.06
23.93
44.25
60.38
72.21
79.87
83.51
83.40
79.95
73.87
66.11
57.72
49.64
42.52
36.51
31.37
26.62
21.69
16.28
10.29
3.95
-2.47
-8.73
-14.82
-20.95
-27.64
-35.58
-45.51
-57.93
-72.69
-88.72
-103.96
-115.65
-120.92
-117.66
-105.13
-84.28
-57.44
-27.71
1.91
29.03
52.22
70.82
84.69
93.96
98.95
100.10
98.10
93.83
88.21
82.04
75.88
69.99
64.34
58.86
53.49
48.32
43.62
39.62
36.32
33.36
30.00
25.38
18.79
9.97
-0.69
-12.36
-24.02
-34.90
-44.71
-53.78
-62.88
-73.03
-85.18
-99.79
-116.49
-133.88
-149.48
-160.23
-163.23
-156.73
-140.67
-116.96
-88.78
-59.73
-32.90
-10.24
7.35
19.83
27.44
30.62
29.84
25.67
18.78
9.91
-0.35
-11.51
-23.29
-35.45
-47.72
-59.72
-71.03
-81.20
-89.88
-96.85
-101.90
-104.77
-104.88
-101.46
-93.64
-80.75
-62.62
-39.71
-13.18
15.27
43.66
70.08
92.89
110.95
123.64
130.81
132.65
129.46
121.46
108.77
91.57
70.44
46.81
23.12
2.59
-11.40
-16.23
-10.84
3.89
25.46
50.47
75.56
98.17
116.79
130.83
140.34
145.60
147.03
145.11
140.53
134.09
126.68
119.03
111.61
104.64
98.14
92.05
86.42
81.40
77.14
73.75
71.13
68.92
66.55
63.38
58.90
52.90
45.64
37.69
29.68
22.00
14.66
7.34
-0.40
-8.82
-17.89
-27.28
-36.54
-45.26
-53.16
-60.16
-66.46
-72.56
-79.27
-87.42
-97.43
-108.82
-119.90
-128.10
-130.61
-125.29
-111.49
-90.18
-63.72
-35.00
-6.77
18.89
40.72
58.08
70.87
79.25
83.64
84.70
83.19
79.90
75.55
70.70
65.76
61.07
56.87
53.39
50.78
49.11
48.28
48.06
48.00
47.65
46.53
44.32
40.98
36.63
31.53
25.89
19.78
13.17
5.95
-1.89
-10.14
-18.43
-26.30
-33.51
-39.99
-45.99
-52.06
-58.81
-66.82
-76.34
-86.97
-97.53
-106.13
-110.50
-108.65
-99.51
-83.40
-62.01
-37.83
-13.52
8.81
27.87
43.16
54.65
62.46
66.74
67.74
65.92
62.02
56.95
51.71
47.03
43.26
40.40
38.17
36.24
34.44
32.75
31.26
30.01
28.91
27.62
25.75
22.87
18.66
12.99
6.00
-1.95
-10.33
-18.52
-26.01
-32.49
-38.08
-43.20
-48.50
-54.67
-62.11
-70.72
-79.77
-87.87
-93.19
-93.94
-88.76
-77.28
-60.21
-39.28
-16.78
5.00
24.26
39.94
51.58
59.20
63.04
63.45
60.94
56.21
50.17
43.73
37.68
32.44
28.03
24.20
20.67
17.35
14.40
12.08
10.57
9.67
8.92
7.59
5.13
1.25
-3.88
-9.76
-15.74
-21.33
-26.30
-30.86
-35.53
-41.04
-48.01
-56.60
-66.31
-75.89
-83.50
-87.14
-85.17
-76.80
-62.30
-43.08
-21.30
0.58
20.38
36.65
48.69
56.51
60.54
61.34
59.45
55.43
49.90
43.50
36.92
30.73
25.28
20.71
17.13
14.50
12.75
11.66
10.83
9.65
7.56
4.15
-0.60
-6.38
-12.71
-19.11
-25.34
-31.49
-37.90
-45.14
-53.72
-63.84
-75.12
-86.32
-95.52
-100.46
-99.21
-90.78
-75.54
-55.12
-31.89
-8.42
13.20
31.55
45.90
56.01
61.97
64.13
63.09
59.65
54.75
49.28
43.86
38.87
34.42
30.48
27.01
24.01
21.47
19.28
17.24
14.91
11.88
7.81
2.61
-3.55
-10.38
-17.55
-24.89
-32.39
-40.18
-48.52
-57.77
-68.20
-79.74
-91.74
-102.70
-110.51
-112.86
-108.03
-95.53
-76.28
-52.39
-26.53
-1.20
21.78
41.28
56.82
68.24
75.62
79.19
79.43
77.05
72.87
67.71
62.17
56.61
51.17
45.87
40.76
35.94
31.57
27.78
24.54
21.64
18.69
15.25
10.92
5.48
-1.04
-8.38
-16.18
-24.08
-31.95
-39.89
-48.30
-57.74
-68.81
-81.68
-95.87
-109.89
-121.48
-128.00
-127.16
-117.81
-100.33
-76.51
-49.02
-20.70
6.07
29.71
49.36
64.74
75.79
82.65
85.60
85.10
81.92
77.04
71.56
66.44
62.21
58.91
56.12
53.27
49.90
45.98
41.85
37.97
34.63
31.68
28.59
24.65
19.26
12.16
3.52
-6.17
-16.23
-26.03
-35.13
-43.43
-51.22
-59.12
-67.98
-78.57
-91.20
-105.39
-119.60
-131.42
-138.08
-137.20
-127.54
-109.44
-84.69
-56.02
-26.38
1.73
26.64
47.45
63.92
76.14
84.33
88.88
90.23
88.99
85.86
81.59
76.82
72.09
67.67
63.71
60.20
57.11
54.34
51.76
49.21
46.42
43.15
39.23
34.58
29.16
22.96
15.90
7.98
-0.75
-10.06
-19.61
-29.04
-38.05
-46.60
-54.88
-63.31
-72.44
-82.84
-94.85
-108.19
-121.72
-133.34
-140.39
-140.34
-131.58
-114.11
-89.50
-60.47
-30.15
-1.24
24.34
45.60
62.24
74.39
82.36
86.63
87.74
86.31
83.07
78.75
74.03
69.42
65.17
61.34
57.80
54.42
51.09
47.83
44.64
41.56
38.56
35.49
32.12
28.11
23.15
16.99
9.65
1.39
-7.35
-16.03
-24.27
-31.95
-39.25
-46.60
-54.59
-63.84
-74.87
-87.71
-101.73
-115.32
-126.12
-131.50
-129.15
-118.04
-98.70
-73.11
-44.17
-14.91
12.21
35.58
54.43
68.52
77.89
82.72
83.43
80.74
75.77
69.78
64.01
59.22
55.60
52.85
50.43
47.93
45.32
42.85
40.88
39.53
38.51
37.17
34.73
30.56
24.45
16.64
7.74
-1.56
-10.69
-19.39
-27.66
-35.75
-44.09
-53.22
-63.66
-75.58
-88.53
-101.10
-111.02
-115.67
-112.84
-101.52
-82.34
-57.36
-29.53
-1.79
23.46
44.73
61.19
72.59
79.01
80.83
78.77
73.90
67.43
60.51
53.94
48.11
43.05
38.57
34.62
31.33
28.87
27.32
26.44
25.59
23.94
20.78
15.74
8.98
1.04
-7.31
-15.44
-23.10
-30.46
-38.04
-46.61
-56.90
-69.26
-83.27
-97.57
-109.82
-117.18
-117.08
-108.04
-90.27
-65.68
-37.29
-8.52
17.81
39.86
56.85
68.78
76.03
79.16
78.82
75.77
70.85
64.94
58.83
53.04
47.87
43.37
39.50
36.21
33.35
30.75
28.07
24.89
20.75
15.33
8.54
0.52
-8.29
-17.43
-26.49
-35.27
-43.94
-53.00
-63.07
-74.64
-87.57
-100.76
-112.12
-118.91
-118.59
-109.64
-92.12
-67.73
-39.36
-10.25
16.83
40.02
58.40
71.76
80.27
84.27
84.29
81.03
75.36
68.21
60.41
52.63
45.32
38.86
33.47
29.28
26.16
23.70
21.30
18.25
14.06
8.54
1.85
-5.62
-13.50
-21.48
-29.48
-37.68
-46.50
-56.57
-68.44
-82.21
-97.04
-111.05
-121.46
-125.36
-120.60
-106.61
-84.54
-57.01
-27.20
1.91
28.13
50.23
67.68
80.42
88.55
92.38
92.44
89.56
84.77
79.07
73.23
67.62
62.28
57.11
52.08
47.36
43.28
40.10
37.76
35.71
33.01
28.69
22.12
13.30
2.83
-8.35
-19.29
-29.53
-39.11
-48.58
-58.78
-70.54
-84.42
-100.34
-117.24
-133.01
-144.63
-149.01
-143.84
-128.44
-104.09
-73.61
-40.55
-8.18
21.19
46.28
66.67
82.42
93.73
100.87
104.17
104.17
101.61
97.41
92.48
87.55
83.06
79.09
75.44
71.81
67.98
63.94
59.87
55.99
52.40
48.89
44.91
39.80
32.99
24.31
14.09
3.07
-7.92
-18.21
-27.59
-36.29
-44.87
-54.08
-64.64
-77.12
-91.63
-107.56
-123.29
-136.28
-143.58
-142.55
-131.84
-111.80
-84.45
-52.92
-20.53
9.93
36.66
58.80
76.21
89.10
97.91
103.13
105.37
105.30
103.59
100.82
97.41
93.62
89.58
85.40
81.25
77.37
73.96
71.15
68.79
66.52
63.85
60.32
55.67
49.89
43.16
35.71
27.76
19.30
10.30
0.68
-9.52
-20.10
-30.70
-40.90
-50.39
-59.07
-67.20
-75.49
-84.87
-96.12
-109.32
-123.38
-136.01
-144.14
-144.81
-136.19
-118.20
-92.60
-62.37
-30.84
-0.85
25.70
47.91
65.61
79.02
88.53
94.58
97.67
98.34
97.23
94.96
92.02
88.81
85.45
81.95
78.31
74.62
71.10
68.00
65.46
63.32
61.12
58.23
54.13
48.67
42.14
35.12
28.29
21.99
16.20
10.46
4.19
-3.01
-11.24
-20.18
-29.30
-38.06
-46.17
-53.58
-60.59
-67.73
-75.74
-85.27
-96.60
-109.24
-121.68
-131.53
-136.00
-132.81
-120.89
-100.80
-74.60
-45.21
-15.66
11.60
34.98
53.75
67.78
77.32
82.87
85.09
84.72
82.57
79.32
75.53
71.59
67.74
64.20
61.16
58.73
56.92
55.57
54.32
52.75
50.49
47.34
43.27
38.38
32.79
26.59
19.86
12.66
5.16
-2.47
-10.02
-17.33
-24.29
-30.89
-37.19
-43.30
-49.54
-56.31
-64.11
-73.29
-83.67
-94.28
-103.36
-108.62
-107.92
-99.94
-84.73
-63.66
-39.09
-13.68
10.22
30.97
47.62
59.80
67.49
70.89
70.47
66.93
61.28
54.65
48.13
42.48
38.03
34.67
32.01
29.65
27.34
25.11
23.06
21.29
19.57
17.43
14.27
9.66
3.51
-3.76
-11.41
-18.66
-24.99
-30.31
-34.94
-39.55
-44.88
-51.57
-59.94
-69.67
-79.65
-88.10
-92.83
-91.88
-84.13
-69.78
-50.27
-27.96
-5.34
15.41
32.89
46.44
55.89
61.41
63.31
62.07
58.36
52.98
46.75
40.37
34.25
28.56
23.30
18.48
14.14
10.43
7.37
4.81
2.38
-0.43
-4.05
-8.66
-14.13
-20.04
-25.91
-31.41
-36.53
-41.60
-47.28
-54.21
-62.82
-72.89
-83.39
-92.49
-97.94
-97.69
-90.48
-76.28
-56.37
-33.04
-8.88
13.66
32.90
47.95
58.65
65.32
68.45
68.60
66.34
62.22
56.79
50.61
44.18
37.94
32.27
27.41
23.49
20.51
18.28
16.40
14.36
11.58
7.65
2.41
-3.99
-11.12
-18.51
-25.75
-32.70
-39.54
-46.83
-55.28
-65.39
-76.99
-88.94
-99.13
-104.94
-104.08
-95.39
-79.26
-57.51
-32.81
-7.91
15.02
34.58
50.09
61.33
68.43
71.70
71.80
69.56
65.82
61.34
56.54
51.58
46.48
41.23
35.97
31.00
26.61
22.88
19.70
16.63
13.17
8.89
3.58
-2.72
-9.79
-17.30
-24.87
-32.23
-39.31
-46.36
-53.95
-62.81
-73.38
-85.39
-97.46
-107.28
-112.06
-109.53
-98.67
-80.14
-56.04
-29.29
-2.74
21.46
42.05
58.53
70.79
78.88
82.93
83.30
80.61
75.84
70.08
64.25
58.96
54.35
50.18
46.11
41.88
37.50
33.22
29.37
26.21
23.67
21.36
18.62
14.80
9.44
2.49
-5.70
-14.54
-23.37
-31.77
-39.60
-47.08
-54.75
-63.28
-73.28
-85.01
-97.92
-110.56
-120.59
-125.39
-122.68
-111.39
-92.06
-66.70
-38.33
-10.00
15.83
37.66
54.99
67.89
76.69
81.75
83.44
82.21
78.73
73.88
68.58
63.57
59.28
55.78
52.85
50.25
47.79
45.45
43.26
41.26
39.33
37.27
34.77
31.52
27.25
21.72
14.85
6.72
-2.40
-12.02
-21.60
-30.64
-38.89
-46.36
-53.43
-60.67
-68.80
-78.32
-89.31
-101.09
-112.11
-120.12
-122.69
-117.94
-105.19
-85.20
-60.04
-32.48
-5.27
19.34
39.97
56.01
67.51
74.76
78.26
78.50
76.08
71.76
66.44
61.08
56.46
53.01
50.61
48.79
46.99
44.89
42.49
40.10
38.00
36.19
34.27
31.61
27.56
21.77
14.34
5.78
-3.18
-11.82
-19.70
-26.73
-33.19
-39.57
-46.51
-54.65
-64.44
-75.87
-88.25
-100.02
-108.90
-112.43
-108.68
-96.94
-78.00
-53.92
-27.47
-1.34
22.39
42.35
57.86
68.61
74.52
75.89
73.32
67.88
60.79
53.32
46.40
40.54
35.81
31.99
28.85
26.22
24.10
22.50
21.37
20.41
19.09
16.82
13.05
7.56
0.52
-7.50
-15.81
-23.73
-30.92
-37.41
-43.69
-50.46
-58.50
-68.33
-79.87
-92.17
-103.38
-111.01
-112.68
-106.79
-93.07
-72.74
-48.12
-21.89
3.47
26.15
45.01
59.47
69.29
74.58
75.78
73.67
69.31
63.75
57.86
52.16
46.87
41.93
37.29
32.94
29.00
25.63
22.85
20.48
18.12
15.19
11.19
5.79
-0.95
-8.71
-16.86
-24.87
-32.33
-39.25
-46.07
-53.55
-62.56
-73.55
-86.27
-99.36
-110.57
-117.15
-116.72
-107.95
-91.06
-67.72
-40.53
-12.32
14.49
38.16
57.66
72.48
82.49
87.89
89.19
87.31
83.32
78.29
72.97
67.72
62.59
57.54
52.64
48.16
44.48
41.88
40.34
39.48
38.58
36.86
33.60
28.41
21.30
12.70
3.29
-6.22
-15.34
-24.00
-32.56
-41.77
-52.39
-64.85
-78.92
-93.42
-106.23
-114.73
-116.42
-109.70
-94.44
-72.10
-45.38
-17.46
8.78
31.29
49.08
61.97
70.34
74.75
75.84
74.31
70.89
66.33
61.32
56.30
51.46
46.73
41.96
37.12
32.44
28.33
25.14
22.91
21.18
19.18
15.98
11.00
4.17
-4.00
-12.62
-20.84
-28.19
-34.79
-41.28
-48.63
-57.70
-68.92
-81.78
-94.79
-105.60
-111.51
-110.23
-100.62
-83.04
-59.37
-32.33
-4.82
20.84
43.17
61.55
75.85
86.13
92.55
95.34
94.98
92.11
87.52
81.87
75.60
68.82
61.52
53.75
45.79
38.21
31.67
26.61
23.01
20.26
17.34
13.23
7.28
-0.56
-9.78
-19.61
-29.36
-38.70
-47.74
-57.03
-67.22
-78.90
-92.29
-106.89
-121.35
-133.51
-140.84
-141.10
-133.11
-117.15
-94.98
-69.32
-43.00
-18.32
3.37
21.54
36.12
47.22
54.83
59.01
60.03
58.56
55.60
52.26
49.38
47.40
46.28
45.75
45.50
45.38
45.44
45.70
46.11
46.37
45.99
44.40
41.11
35.83
28.56
19.64
9.60
-0.85
-11.06
-20.62
-29.45
-37.77
-46.09
-55.06
-65.31
-77.27
-90.78
-104.87
-117.69
-126.73
-129.36
-123.66
-109.11
-86.76
-59.04
-29.01
0.44
27.16
49.94
68.38
82.51
92.60
99.06
102.37
103.15
101.99
99.45
95.95
91.76
87.12
82.28
77.62
73.54
70.36
68.14
66.63
65.25
63.32
60.21
55.65
49.74
42.93
35.77
28.69
21.82
14.97
7.78
-0.10
-8.77
-18.05
-27.53
-36.67
-45.03
-52.46
-59.19
-65.87
-73.46
-82.81
-94.27
-107.20
-119.80
-129.38
-133.03
-128.52
-115.10
-93.75
-66.87
-37.57
-8.75
17.42
39.74
57.73
71.35
80.66
85.86
87.29
85.64
81.85
76.90
71.70
66.83
62.53
58.88
55.92
53.77
52.48
51.98
51.94
51.75
50.72
48.39
44.64
39.76
34.22
28.40
22.41
16.03
8.90
0.80
-8.22
-17.72
-27.14
-35.93
-43.81
-50.84
-57.37
-64.02
-71.44
-80.19
-90.34
-101.21
-111.22
-118.06
-119.31
-113.10
-98.86
-77.43
-50.98
-22.37
5.60
30.71
51.57
67.65
78.98
85.97
89.21
89.39
87.24
83.54
79.02
74.29
69.83
65.94
62.69
60.08
58.09
56.62
55.60
54.78
53.84
52.37
49.98
46.41
41.69
36.05
29.83
23.42
17.02
10.60
3.92
-3.32
-11.39
-20.24
-29.55
-38.76
-47.27
-54.78
-61.40
-67.80
-74.90
-83.54
-93.89
-105.10
-115.29
-121.90
-122.43
-115.25
-100.11
-78.26
-52.09
-24.44
2.07
25.52
44.82
59.59
69.93
76.20
78.83
78.37
75.48
70.95
65.65
60.37
55.62
51.65
48.44
45.88
43.94
42.68
42.09
41.92
41.63
40.51
37.92
33.66
27.99
21.59
15.19
9.20
3.58
-2.09
-8.29
-15.27
-22.84
-30.53
-37.82
-44.41
-50.40
-56.25
-62.61
-70.07
-78.93
-88.91
-98.97
-107.37
-111.95
-110.67
-102.28
-86.73
-65.30
-40.21
-14.06
10.74
32.51
50.27
63.69
72.87
78.15
80.01
79.02
75.87
71.25
65.89
60.37
55.10
50.37
46.32
43.07
40.67
39.00
37.80
36.69
35.23
33.12
30.24
26.63
22.43
17.78
12.73
7.32
1.61
-4.41
-10.74
-17.42
-24.52
-31.97
-39.60
-47.11
-54.36
-61.45
-68.85
-77.16
-86.68
-96.93
-106.49
-113.16
-114.62
-109.16
-96.26
-76.81
-52.81
-26.78
-1.22
21.84
41.03
55.67
65.61
71.13
72.76
71.22
67.34
61.89
55.67
49.40
43.75
39.15
35.83
33.72
32.54
31.93
31.48
30.89
29.99
28.67
26.92
24.69
21.89
18.35
13.89
8.33
1.73
-5.66
-13.38
-20.93
-27.95
-34.33
-40.25
-46.05
-52.17
-59.02
-66.95
-75.99
-85.76
-95.21
-102.67
-106.13
-103.77
-94.65
-78.96
-58.24
-34.74
-10.91
11.16
30.05
44.96
55.60
61.92
64.06
62.46
57.88
51.41
44.28
37.67
32.33
28.56
26.13
24.60
23.51
22.53
21.59
20.70
19.90
19.02
17.77
15.70
12.39
7.59
1.38
-5.82
-13.37
-20.61
-27.10
-32.77
-38.00
-43.48
-49.95
-57.93
-67.38
-77.57
-87.10
-94.02
-96.34
-92.56
-82.08
-65.49
-44.38
-21.02
2.21
23.30
40.85
54.13
62.87
67.15
67.26
63.76
57.45
49.38
40.67
32.36
25.14
19.32
14.86
11.51
8.97
6.99
5.36
3.84
2.10
-0.27
-3.60
-8.07
-13.60
-19.92
-26.63
-33.40
-40.15
-47.15
-54.99
-64.25
-75.10
-86.95
-98.12
-106.23
-108.78
-103.94
-91.18
-71.55
-47.33
-21.35
3.67
25.74
43.69
57.10
66.02
70.68
71.47
68.78
63.19
55.51
46.68
37.74
29.56
22.75
17.56
13.86
11.21
9.09
6.89
4.11
0.36
-4.49
-10.38
-17.08
-24.25
-31.64
-39.16
-47.09
-55.93
-66.33
-78.64
-92.53
-106.71
-118.89
-126.29
-126.39
-117.70
-100.23
-75.54
-46.29
-15.57
13.82
39.67
60.64
76.13
86.13
91.14
91.97
89.62
85.02
78.93
71.96
64.58
57.23
50.33
44.23
39.06
34.67
30.62
26.34
21.34
15.33
8.34
0.56
-7.67
-16.06
-24.42
-32.71
-41.16
-50.29
-60.85
-73.50
-88.38
-104.52
-119.74
-130.91
-134.75
-128.95
-112.87
-87.89
-56.86
-23.33
9.37
38.72
63.14
81.92
94.91
102.45
105.21
104.20
100.57
95.54
90.07
84.71
79.62
74.60
69.34
63.75
57.99
52.51
47.84
44.21
41.41
38.74
35.21
29.91
22.36
12.66
1.45
-10.36
-21.88
-32.67
-42.78
-52.83
-63.78
-76.58
-91.76
-108.88
-126.22
-140.91
-149.50
-148.89
-137.30
-114.98
-84.11
-48.31
-11.57
22.60
51.87
75.17
92.44
104.21
111.20
114.08
113.47
110.05
104.63
98.14
91.51
85.44
80.23
75.86
72.08
68.57
65.19
61.91
58.77
55.79
52.82
49.48
45.22
39.50
31.85
22.21
10.91
-1.35
-13.73
-25.52
-36.36
-46.30
-55.74
-65.27
-75.58
-87.32
-100.86
-115.95
-131.38
-144.84
-153.28
-153.63
-143.81
-123.49
-94.28
-59.37
-22.58
12.52
43.31
68.33
87.15
100.06
107.78
111.21
111.24
108.75
104.46
99.05
93.11
87.22
81.75
77.04
73.11
69.84
66.93
64.09
61.07
57.75
54.13
50.14
45.62
40.26
33.72
25.72
16.26
5.63
-5.49
-16.31
-26.19
-34.81
-42.34
-49.33
-56.51
-64.71
-74.56
-86.34
-99.69
-113.41
-125.31
-132.62
-132.56
-123.24
-104.45
-77.83
-46.46
-14.01
16.31
42.39
63.27
78.85
89.38
95.22
96.77
94.62
89.68
83.14
76.26
70.02
64.96
61.08
58.06
55.47
53.01
50.65
48.50
46.67
45.12
43.49
41.21
37.64
32.28
24.92
15.83
5.58
-5.05
-15.27
-24.57
-32.79
-40.21
-47.40
-55.11
-64.08
-74.68
-86.72
-99.14
-110.04
-116.94
-117.40
-109.76
-93.76
-70.70
-43.09
-14.05
13.62
37.78
57.27
71.58
80.72
84.92
84.66
80.79
74.40
66.79
59.11
52.15
46.24
41.34
37.25
33.81
31.08
29.18
28.13
27.73
27.42
26.38
23.76
19.01
12.06
3.36
-6.27
-15.85
-24.61
-32.20
-38.88
-45.42
-52.87
-62.19
-73.77
-86.99
-100.06
-110.34
-114.90
-111.53
-99.44
-79.56
-54.22
-26.47
0.77
25.23
45.56
61.09
71.65
77.30
78.37
75.51
69.70
62.17
54.06
46.30
39.40
33.57
28.77
24.96
22.09
20.11
18.88
18.02
16.95
14.96
11.47
6.16
-0.88
-9.15
-18.00
-26.77
-35.14
-43.13
-51.34
-60.58
-71.57
-84.44
-98.36
-111.35
-120.67
-123.55
-118.03
-103.68
-81.70
-54.58
-25.42
2.88
28.11
48.96
64.87
75.83
82.16
84.39
83.25
79.59
74.31
68.21
61.89
55.71
49.82
44.30
39.30
35.04
31.73
29.47
27.99
26.75
25.01
22.02
17.30
10.76
2.73
-6.20
-15.32
-24.13
-32.44
-40.49
-48.95
-58.72
-70.65
-84.91
-100.63
-115.64
-126.88
-131.16
-126.17
-111.36
-88.06
-59.11
-27.94
2.27
29.25
51.75
69.29
81.96
90.01
93.87
94.08
91.31
86.41
80.28
73.77
67.55
61.97
57.02
52.47
48.15
44.05
40.40
37.52
35.47
33.94
32.16
29.16
24.19
17.01
8.00
-2.04
-12.10
-21.53
-30.04
-37.87
-45.61
-54.06
-64.04
-76.16
-90.38
-105.73
-120.17
-130.71
-134.29
-128.61
-113.06
-88.95
-59.12
-27.12
3.79
31.31
54.21
72.07
84.98
93.19
97.09
97.32
94.67
90.08
84.44
78.50
72.75
67.41
62.55
58.11
54.05
50.28
46.79
43.57
40.60
37.87
35.23
32.48
29.28
25.14
19.63
12.49
3.82
-5.91
-16.00
-25.72
-34.64
-42.69
-50.22
-57.83
-66.27
-76.24
-88.09
-101.50
-115.21
-126.98
-133.99
-133.55
-124.07
-105.62
-80.02
-50.35
-19.97
8.22
32.34
51.58
65.85
75.52
81.08
83.06
82.13
79.02
74.54
69.49
64.51
60.10
56.46
53.59
51.29
49.31
47.46
45.61
43.76
41.86
39.78
37.27
34.00
29.65
24.05
17.18
9.24
0.62
-8.18
-16.68
-24.51
-31.60
-38.13
-44.57
-51.51
-59.57
-69.20
-80.50
-92.98
-105.34
-115.52
-121.05
-119.66
-110.06
-92.47
-68.67
-41.44
-13.87
11.57
33.24
50.38
62.84
70.68
74.11
73.53
69.62
63.49
56.47
49.91
44.78
41.41
39.54
38.46
37.49
36.22
34.71
33.25
32.13
31.27
30.13
27.95
24.01
18.04
10.28
1.46
-7.49
-15.83
-23.17
-29.58
-35.53
-41.67
-48.73
-57.36
-67.77
-79.67
-91.93
-102.54
-109.04
-109.10
-101.31
-85.78
-64.14
-39.05
-13.42
10.35
30.75
47.09
59.22
67.17
71.08
71.23
68.19
62.85
56.27
49.52
43.31
38.01
33.60
29.83
26.52
23.64
21.28
19.60
18.55
17.73
16.47
13.91
9.44
2.90
-5.20
-14.04
-22.68
-30.56
-37.70
-44.67
-52.37
-61.75
-73.37
-87.06
-101.65
-114.96
-124.14
-126.37
-119.72
-103.86
-80.25
-51.63
-21.28
7.80
33.55
54.83
71.24
82.81
89.70
92.29
91.20
87.34
81.75
75.53
69.52
64.21
59.68
55.73
52.06
48.46
44.95
41.67
38.89
36.62
34.54
31.98
28.10
22.23
14.18
4.36
-6.29
-16.70
-26.12
-34.35
-41.76
-49.22
-57.81
-68.44
-81.62
-97.04
-113.29
-127.87
-137.61
-139.50
-131.65
-114.03
-88.50
-58.29
-26.92
2.68
28.70
50.38
67.67
80.72
89.65
94.58
95.81
93.89
89.63
83.99
77.85
71.93
66.65
62.09
58.18
54.68
51.39
48.25
45.28
42.53
40.00
37.48
34.57
30.80
25.73
19.17
11.22
2.25
-7.24
-16.71
-25.83
-34.48
-42.79
-51.15
-60.08
-70.22
-81.98
-95.24
-109.01
-121.30
-129.47
-130.76
-123.29
-106.72
-82.43
-53.19
-22.35
6.97
32.59
53.40
69.15
80.11
86.77
89.74
89.66
87.35
83.63
79.29
74.93
70.89
67.22
63.85
60.72
57.85
55.39
53.43
51.88
50.41
48.47
45.57
41.44
36.21
30.26
24.05
17.89
11.75
5.31
-1.89
-10.06
-19.13
-28.60
-37.81
-46.23
-53.64
-60.33
-66.98
-74.50
-83.67
-94.78
-107.27
-119.56
-129.23
-133.50
-130.06
-117.81
-97.29
-70.55
-40.64
-10.68
16.73
39.91
58.05
71.00
79.08
82.88
83.20
80.99
77.22
72.73
68.12
63.81
59.95
56.65
53.90
51.72
50.02
48.61
47.26
45.65
43.48
40.53
36.75
32.25
27.23
21.96
16.53
10.86
4.73
-2.09
-9.65
-17.79
-26.17
-34.39
-42.14
-49.33
-56.14
-63.02
-70.59
-79.43
-89.72
-100.91
-111.44
-118.94
-120.78
-114.94
-100.70
-79.08
-52.47
-23.93
3.60
27.98
48.06
63.46
74.21
80.50
82.60
80.94
76.30
69.73
62.47
55.64
49.96
45.67
42.56
40.18
38.10
36.08
34.08
32.20
30.48
28.81
26.91
24.31
20.56
15.34
8.70
1.04
-6.98
-14.66
-21.45
-27.22
-32.26
-37.16
-42.66
-49.47
-58.07
-68.50
-80.16
-91.57
-100.60
-104.86
-102.34
-92.14
-74.78
-52.12
-26.76
-1.41
21.75
41.33
56.59
67.33
73.59
75.60
73.81
69.00
62.22
54.71
47.58
41.56
36.84
33.14
29.98
26.94
24.03
21.46
19.58
18.46
17.73
16.63
14.27
10.01
3.76
-4.02
-12.47
-20.73
-28.28
-35.08
-41.49
-48.19
-55.89
-65.15
-76.08
-88.26
-100.38
-110.43
-115.97
-114.79
-105.62
-88.72
-65.82
-39.63
-13.12
11.34
32.23
48.92
61.31
69.50
73.65
74.03
71.24
66.18
59.97
53.66
48.03
43.35
39.54
36.35
33.57
31.18
29.28
27.93
26.94
25.83
23.90
20.51
15.21
8.05
-0.58
-9.94
-19.28
-27.98
-35.80
-42.93
-49.95
-57.70
-67.02
-78.41
-91.53
-105.03
-116.56
-123.25
-122.63
-113.37
-95.79
-71.83
-44.34
-16.37
9.59
31.94
50.01
63.71
73.27
79.01
81.34
80.77
77.94
73.65
68.66
63.64
59.00
54.85
51.14
47.69
44.41
41.30
38.50
36.14
34.21
32.50
30.56
27.81
23.70
17.90
10.46
1.77
-7.54
-16.87
-25.77
-34.14
-42.20
-50.42
-59.37
-69.63
-81.58
-95.02
-109.00
-121.58
-130.15
-132.05
-125.33
-109.58
-86.04
-57.39
-26.91
2.35
28.15
49.33
65.55
77.01
84.13
87.45
87.56
85.20
81.20
76.34
71.34
66.71
62.77
59.63
57.32
55.74
54.77
54.18
53.65
52.85
51.39
48.93
45.21
40.20
34.00
26.84
19.01
10.72
2.15
-6.69
-15.72
-24.84
-33.86
-42.53
-50.69
-58.37
-65.94
-74.03
-83.44
-94.70
-107.58
-120.79
-131.95
-138.11
-136.62
-126.01
-106.57
-80.31
-50.27
-19.72
8.61
33.03
52.76
67.69
78.09
84.40
87.20
87.17
85.09
81.72
77.75
73.64
69.69
66.03
62.79
60.12
58.20
57.17
56.96
57.24
57.40
56.68
54.47
50.51
44.96
38.35
31.22
23.98
16.68
9.08
0.88
-8.07
-17.59
-27.25
-36.51
-44.96
-52.44
-59.12
-65.51
-72.31
-80.35
-90.26
-102.10
-115.00
-126.96
-135.20
-136.77
-129.56
-113.09
-88.68
-59.20
-28.12
1.41
27.21
48.20
64.19
75.41
82.28
85.28
85.03
82.38
78.22
73.41
68.59
64.10
60.08
56.69
54.04
52.30
51.50
51.46
51.76
51.84
51.11
49.15
45.77
41.04
35.21
28.64
21.64
14.40
6.95
-0.85
-9.15
-17.93
-26.97
-35.87
-44.17
-51.71
-58.74
-65.91
-74.13
-84.02
-95.49
-107.36
-117.43
-122.99
-121.58
-111.85
-93.98
-69.70
-41.80
-13.29
13.23
36.04
54.26
67.62
76.17
80.17
80.03
76.44
70.35
62.93
55.36
48.60
43.21
39.34
36.84
35.32
34.45
33.97
33.76
33.78
33.87
33.70
32.71
30.26
25.86
19.30
10.95
1.51
-8.10
-17.12
-25.18
-32.35
-39.11
-46.08
-53.95
-63.13
-73.76
-85.33
-96.64
-105.80
-110.59
-109.03
-99.98
-83.61
-61.42
-35.83
-9.54
15.05
36.19
52.87
64.60
71.31
73.33
71.30
66.21
59.30
51.81
44.68
38.44
33.22
28.87
25.28
22.45
20.52
19.54
19.33
19.32
18.69
16.68
12.75
6.91
-0.45
-8.65
-17.04
-25.15
-32.85
-40.34
-48.18
-57.10
-67.70
-80.01
-93.12
-105.06
-113.11
-114.64
-107.95
-92.97
-71.26
-45.53
-18.83
6.22
27.89
45.30
58.22
66.73
71.08
71.69
69.12
64.16
57.67
50.50
43.31
36.56
30.61
25.70
22.09
19.81
18.66
18.12
17.37
15.51
11.87
6.19
-1.29
-9.98
-19.14
-28.16
-36.79
-45.21
-54.02
-64.13
-76.25
-90.50
-105.92
-120.37
-130.88
-134.48
-129.04
-114.10
-91.01
-62.54
-32.09
-2.76
23.19
44.53
60.90
72.39
79.35
82.29
81.83
78.81
74.12
68.63
62.97
57.52
52.38
47.57
43.17
39.39
36.52
34.73
33.86
33.33
32.25
29.69
24.98
17.95
8.97
-1.20
-11.71
-21.86
-31.41
-40.62
-50.28
-61.41
-74.88
-90.87
-108.29
-124.75
-136.92
-141.41
-135.92
-119.98
-95.21
-64.73
-32.22
-0.86
27.19
50.92
70.16
85.09
95.99
103.11
106.73
107.24
105.18
101.21
96.13
90.69
85.53
81.08
77.49
74.69
72.41
70.35
68.25
65.88
63.10
59.69
55.42
50.02
43.26
35.02
25.38
14.64
3.31
-8.03
-18.89
-28.97
-38.31
-47.25
-56.32
-66.25
-77.78
-91.42
-107.12
-123.80
-139.22
-150.33
-153.99
-147.95
-131.69
-106.57
-75.37
-41.47
-7.97
22.84
49.51
71.31
88.00
99.73
106.96
110.45
111.07
109.71
107.07
103.64
99.75
95.63
91.44
87.35
83.58
80.35
77.91
76.36
75.56
75.07
74.19
72.12
68.27
62.45
54.93
46.45
37.85
29.81
22.56
15.88
9.19
1.88
-6.46
-15.87
-25.96
-36.14
-45.77
-54.52
-62.39
-69.84
-77.70
-86.95
-98.38
-112.12
-127.34
-141.93
-152.96
-157.31
-152.62
-138.07
-114.67
-85.01
-52.37
-19.94
9.90
35.68
56.76
73.01
84.60
91.94
95.60
96.33
94.95
92.28
88.97
85.53
82.26
79.29
76.63
74.36
72.59
71.49
71.16
71.49
72.03
72.11
70.97
68.11
63.40
57.11
49.78
42.06
34.45
27.22
20.39
13.73
6.91
-0.43
-8.52
-17.37
-26.68
-35.94
-44.56
-52.15
-58.66
-64.49
-70.44
-77.44
-86.25
-97.00
-108.98
-120.41
-128.85
-131.70
-126.98
-114.07
-93.81
-68.38
-40.63
-13.33
11.42
32.41
49.19
61.84
70.58
75.72
77.61
76.74
73.83
69.67
65.09
60.73
57.00
54.03
51.73
49.94
48.50
47.26
46.08
44.80
43.26
41.24
38.53
34.95
30.34
24.66
18.00
10.59
2.77
-5.08
-12.67
-19.86
-26.63
-33.18
-39.73
-46.64
-54.28
-62.99
-72.83
-83.36
-93.48
-101.35
-104.87
-102.23
-92.54
-76.23
-54.94
-31.01
-6.85
15.56
34.96
50.56
61.91
68.81
71.28
69.77
65.17
58.71
51.71
45.26
39.95
35.89
32.86
30.48
28.52
26.95
25.86
25.38
25.40
25.50
25.06
23.39
20.01
14.79
8.03
0.29
-7.75
-15.60
-23.03
-30.15
-37.35
-45.16
-54.15
-64.60
-76.34
-88.47
-99.39
-106.97
-109.19
-104.61
-93.02
-75.39
-53.66
-30.20
-7.18
13.73
31.48
45.45
55.30
61.00
62.74
61.09
56.94
51.29
45.02
38.75
32.77
27.23
22.23
17.98
14.70
12.52
11.29
10.57
9.69
7.94
4.80
0.08
-6.05
-13.18
-20.80
-28.45
-35.83
-42.93
-50.03
-57.68
-66.45
-76.52
-87.35
-97.47
-104.71
-106.72
-101.79
-89.52
-70.97
-48.28
-24.13
-0.86
19.85
37.06
50.41
59.79
65.31
67.32
66.41
63.46
59.41
55.04
50.78
46.63
42.43
37.99
33.48
29.31
26.03
23.93
22.82
21.99
20.38
17.05
11.52
3.98
-4.90
-14.25
-23.30
-31.71
-39.55
-47.27
-55.51
-64.93
-75.87
-88.12
-100.61
-111.39
-117.99
-118.04
-110.07
-94.08
-71.57
-45.27
-18.19
7.07
28.82
46.38
59.79
69.44
75.71
78.92
79.41
77.64
74.31
70.20
66.00
62.07
58.38
54.66
50.67
46.45
42.33
38.81
36.12
34.08
32.00
28.98
24.26
17.57
9.16
-0.25
-9.85
-19.00
-27.37
-35.06
-42.51
-50.38
-59.43
-70.28
-83.07
-97.12
-110.75
-121.42
-126.34
-123.31
-111.46
-91.65
-66.21
-38.27
-10.84
13.87
34.72
51.46
64.28
73.57
79.57
82.50
82.69
80.62
76.94
72.43
67.71
63.16
58.91
54.82
50.74
46.56
42.35
38.30
34.61
31.39
28.51
25.62
22.15
17.56
11.47
3.99
-4.45
-13.12
-21.33
-28.72
-35.45
-42.01
-49.12
-57.51
-67.67
-79.69
-93.02
-106.32
-117.48
-123.96
-123.44
-114.57
-97.56
-74.14
-47.12
-19.51
6.19
28.44
46.58
60.57
70.62
76.97
79.93
79.94
77.62
73.78
69.27
64.77
60.72
57.27
54.34
51.83
49.65
47.76
46.12
44.61
43.01
41.07
38.48
35.02
30.47
24.66
17.50
9.04
-0.46
-10.50
-20.50
-29.93
-38.51
-46.27
-53.58
-61.11
-69.63
-79.81
-91.82
-105.07
-117.98
-128.21
-133.07
-130.41
-119.30
-100.29
-75.34
-47.22
-18.72
7.86
30.98
49.87
64.29
74.31
80.21
82.45
81.68
78.75
74.53
69.90
65.50
61.72
58.59
55.95
53.49
50.95
48.20
45.27
42.33
39.48
36.70
33.74
30.23
25.68
19.84
12.66
4.45
-4.29
-13.02
-21.33
-29.05
-36.25
-43.19
-50.33
-58.26
-67.52
-78.39
-90.49
-102.59
-112.61
-118.06
-116.76
-107.53
-90.59
-67.55
-40.96
-13.63
12.03
34.33
52.33
65.71
74.52
79.04
79.75
77.42
72.98
67.49
61.90
56.88
52.68
49.19
46.11
43.22
40.49
38.09
36.22
34.92
33.91
32.54
30.07
25.89
19.71
11.80
2.86
-6.24
-14.76
-22.30
-28.99
-35.40
-42.39
-50.81
-61.18
-73.38
-86.43
-98.47
-107.04
-109.73
-104.84
-91.95
-72.15
-47.74
-21.51
3.83
26.29
44.73
58.67
68.06
73.07
74.03
71.49
66.30
59.55
52.37
45.70
40.08
35.66
32.30
29.82
28.08
26.99
26.34
25.74
24.59
22.25
18.29
12.64
5.61
-2.18
-10.13
-17.78
-25.02
-32.11
-39.65
-48.32
-58.66
-70.60
-83.11
-94.21
-101.29
-101.88
-94.53
-79.37
-58.11
-33.52
-8.53
14.44
33.94
49.31
60.44
67.42
70.37
69.62
65.69
59.42
51.76
43.70
36.00
29.23
23.70
19.58
16.81
15.19
14.28
13.49
12.17
9.82
6.15
1.21
-4.75
-11.40
-18.49
-25.93
-33.89
-42.73
-52.93
-64.74
-77.89
-91.20
-102.64
-109.62
-109.72
-101.54
-85.22
-62.55
-36.42
-10.08
13.81
33.59
48.68
59.32
66.02
69.31
69.60
67.26
62.75
56.71
49.86
42.93
36.47
30.82
26.16
22.51
19.74
17.55
15.46
12.93
9.46
4.89
-0.74
-7.11
-13.89
-20.91
-28.25
-36.25
-45.49
-56.48
-69.37
-83.61
-97.66
-109.15
-115.39
-114.08
-104.09
-85.87
-61.31
-33.23
-4.57
22.13
45.12
63.41
76.61
84.87
88.65
88.78
86.23
82.00
76.90
71.49
65.99
60.41
54.72
48.97
43.45
38.54
34.64
31.86
29.90
28.05
25.40
21.20
15.05
7.15
-1.92
-11.41
-20.74
-29.68
-38.38
-47.43
-57.58
-69.58
-83.61
-99.07
-114.13
-126.01
-131.64
-128.56
-115.75
-94.12
-66.25
-35.50
-5.15
22.43
46.00
65.24
80.33
91.53
99.05
103.03
103.79
101.82
97.88
92.84
87.48
82.43
77.98
74.14
70.73
67.50
64.25
60.91
57.44
53.84
50.07
46.00
41.45
36.27
30.27
23.33
15.34
6.30
-3.63
-14.11
-24.69
-34.94
-44.57
-53.58
-62.28
-71.20
-80.98
-92.09
-104.54
-117.51
-129.31
-137.51
-139.56
-133.52
-118.76
-96.27
-68.38
-38.10
-8.30
18.79
41.90
60.50
74.60
84.47
90.55
93.47
93.94
92.69
90.30
87.22
83.67
79.82
75.88
72.13
68.81
66.09
63.91
62.00
59.95
57.29
53.73
49.13
43.62
37.36
30.56
23.30
15.48
7.02
-2.08
-11.67
-21.35
-30.64
-39.16
-46.75
-53.64
-60.33
-67.53
-75.99
-86.13
-97.82
-110.01
-120.75
-127.50
-127.77
-119.94
-103.83
-80.88
-53.68
-25.30
1.58
25.08
44.33
59.17
69.91
76.98
80.84
81.93
80.76
77.92
74.06
69.89
65.96
62.63
60.01
58.06
56.61
55.51
54.56
53.63
52.48
50.83
48.43
45.14
40.87
35.68
29.62
22.71
14.96
6.44
-2.69
-12.09
-21.39
-30.26
-38.56
-46.38
-54.08
-62.20
-71.38
-81.99
-93.86
-106.00
-116.54
-123.00
-123.02
-115.06
-99.02
-76.33
-49.55
-21.61
4.89
28.13
47.18
61.70
71.72
77.47
79.30
77.78
73.70
68.11
62.06
56.49
51.97
48.61
46.14
44.08
41.97
39.60
37.07
34.64
32.54
30.78
29.08
26.91
23.71
19.08
12.96
5.59
-2.58
-11.05
-19.45
-27.61
-35.48
-43.24
-51.11
-59.46
-68.70
-78.99
-89.98
-100.49
-108.60
-112.03
-108.86
-98.28
-80.80
-58.24
-33.12
-8.00
15.01
34.46
49.57
60.04
65.92
67.55
65.60
60.95
54.58
47.45
40.38
33.94
28.41
23.90
20.36
17.74
16.01
15.13
14.94
14.97
14.60
13.11
9.98
5.11
-1.15
-8.14
-15.15
-21.72
-27.83
-33.86
-40.49
-48.37
-57.85
-68.59
-79.47
-88.63
-93.87
-93.30
-85.87
-71.75
-52.31
-29.76
-6.55
15.12
33.65
48.13
58.22
64.05
66.01
64.66
60.68
54.78
47.76
40.42
33.50
27.56
22.92
19.60
17.40
15.97
14.90
13.79
12.22
9.82
6.33
1.70
-3.94
-10.25
-16.87
-23.53
-30.19
-37.13
-44.82
-53.83
-64.44
-76.32
-88.25
-98.13
-103.43
-101.94
-92.51
-75.60
-53.09
-27.84
-2.74
19.86
38.60
53.00
63.12
69.28
71.81
71.05
67.45
61.57
54.16
46.03
38.00
30.70
24.59
19.79
16.19
13.49
11.27
9.09
6.53
3.27
-0.93
-6.14
-12.23
-18.95
-25.99
-33.17
-40.54
-48.50
-57.64
-68.35
-80.42
-92.67
-103.01
-108.88
-107.96
-98.98
-82.19
-59.29
-32.99
-6.25
18.41
39.29
55.57
67.17
74.43
77.89
78.17
75.93
71.78
66.30
59.99
53.26
46.51
40.07
34.27
29.33
25.32
22.05
19.18
16.19
12.65
8.24
2.85
-3.43
-10.42
-17.87
-25.63
-33.62
-42.02
-51.24
-61.79
-74.10
-87.99
-102.30
-114.82
-122.74
-123.37
-115.12
-98.05
-73.90
-45.54
-16.10
11.77
36.31
56.62
72.41
83.73
90.73
93.81
93.55
90.80
86.53
81.64
76.76
72.12
67.58
62.92
57.97
52.84
47.86
43.46
39.87
36.92
34.05
30.46
25.35
18.30
9.37
-0.86
-11.53
-21.81
-31.21
-39.78
-48.12
-57.14
-67.78
-80.60
-95.46
-111.23
-125.80
-136.46
-140.43
-135.66
-121.47
-98.83
-70.13
-38.50
-7.10
21.60
46.07
65.69
80.41
90.49
96.36
98.53
97.62
94.43
89.83
84.63
79.49
74.75
70.50
66.67
63.16
59.91
56.89
54.12
51.55
49.07
46.39
43.13
38.82
33.02
25.46
16.19
5.60
-5.65
-16.86
-27.44
-37.13
-45.98
-54.35
-62.82
-72.13
-82.96
-95.63
-109.66
-123.50
-134.60
-139.97
-137.05
-124.68
-103.46
-75.65
-44.45
-13.09
15.88
40.91
61.30
76.94
88.04
94.94
98.13
98.16
95.76
91.69
86.69
81.45
76.47
72.08
68.39
65.33
62.69
60.27
57.85
55.30
52.55
49.50
46.04
42.03
37.27
31.52
24.69
16.74
7.82
-1.80
-11.77
-21.67
-31.22
-40.25
-48.81
-57.19
-65.89
-75.54
-86.62
-99.12
-112.14
-123.84
-131.59
-132.75
-125.49
-109.43
-85.86
-57.38
-27.15
1.98
27.95
49.60
66.50
78.64
86.20
89.59
89.43
86.55
81.97
76.62
71.25
66.34
62.04
58.38
55.29
52.68
50.43
48.39
46.40
44.22
41.69
38.63
34.86
30.21
24.51
17.71
9.92
1.44
-7.28
-15.70
-23.50
-30.56
-37.04
-43.39
-50.23
-58.17
-67.71
-78.92
-91.23
-103.30
-113.08
-118.17
-116.51
-107.03
-90.06
-67.28
-41.27
-14.72
10.04
31.51
48.85
61.69
69.96
73.81
73.67
70.35
64.97
58.79
52.87
47.86
43.96
40.99
38.63
36.65
34.95
33.63
32.72
32.11
31.45
30.15
27.61
23.36
17.31
9.75
1.30
-7.31
-15.53
-23.11
-30.23
-37.34
-45.07
-54.00
-64.45
-76.14
-88.05
-98.33
-104.62
-104.75
-97.31
-82.31
-61.20
-36.45
-10.87
13.08
33.73
50.24
62.24
69.77
72.99
72.32
68.46
62.42
55.33
48.21
41.74
36.19
31.52
27.70
24.72
22.74
21.78
21.57
21.46
20.53
17.95
13.35
6.85
-0.95
-9.32
-17.65
-25.66
-33.37
-41.10
-49.30
-58.46
-68.85
-80.27
-91.81
-101.74
-107.85
-107.94
-100.55
-85.54
-64.16
-38.82
-12.34
12.66
34.24
51.33
63.60
71.19
74.56
74.29
71.13
65.93
59.55
52.70
45.89
39.40
33.36
27.93
23.27
19.58
16.95
15.14
13.70
11.99
9.41
5.56
0.37
-5.94
-12.99
-20.43
-28.01
-35.82
-44.24
-53.83
-65.10
-78.07
-91.94
-105.01
-114.87
-118.99
-115.45
-103.57
-84.13
-59.19
-31.50
-3.87
21.39
42.71
59.36
71.19
78.50
81.83
81.89
79.40
75.09
69.60
63.45
57.13
50.95
45.24
40.19
35.83
32.02
28.44
24.75
20.56
15.63
9.84
3.24
-4.05
-11.87
-20.02
-28.40
-37.02
-46.14
-56.23
-67.78
-80.89
-94.86
-107.95
-117.58
-121.01
-116.20
-102.57
-81.21
-54.62
-25.91
1.95
26.76
47.24
62.86
73.64
79.96
82.39
81.70
78.71
74.20
68.75
62.72
56.27
49.54
42.79
36.39
30.85
26.51
23.42
21.19
19.08
16.28
12.14
6.49
-0.44
-8.12
-16.07
-24.02
-32.04
-40.58
-50.27
-61.69
-75.04
-89.70
-104.04
-115.53
-121.36
-119.23
-108.15
-88.77
-63.28
-34.70
-6.10
20.00
42.00
59.14
71.35
79.01
82.78
83.44
81.83
78.68
74.56
69.88
64.82
59.49
53.98
48.40
43.03
38.20
34.20
31.05
28.43
25.67
21.96
16.62
9.47
0.79
-8.69
-18.17
-27.08
-35.33
-43.46
-52.41
-63.14
-76.15
-90.96
-105.89
-118.25
-124.99
-123.56
-112.73
-93.11
-66.91
-37.29
-7.51
19.78
42.88
61.02
74.04
82.18
85.92
85.98
83.29
78.85
73.61
68.25
63.07
58.12
53.25
48.40
43.72
39.51
36.06
33.42
31.26
28.82
25.24
19.85
12.43
3.35
-6.61
-16.57
-25.89
-34.41
-42.53
-51.04
-60.89
-72.70
-86.46
-101.09
-114.44
-123.70
-126.08
-119.71
-104.18
-80.84
-52.32
-21.82
7.65
33.79
55.20
71.27
81.91
87.55
88.84
86.64
81.92
75.65
68.66
61.63
55.05
49.22
44.30
40.31
37.25
35.05
33.49
32.15
30.39
27.49
22.82
16.17
7.84
-1.47
-10.83
-19.53
-27.30
-34.37
-41.46
-49.53
-59.40
-71.36
-84.66
-97.37
-106.74
-109.76
-104.28
-89.73
-67.37
-40.01
-11.06
16.34
39.96
58.58
71.89
80.05
83.52
82.91
79.07
72.96
65.59
57.85
50.40
43.63
37.74
32.84
29.02
26.33
24.66
23.66
22.77
21.30
18.60
14.28
8.30
1.00
-7.08
-15.32
-23.31
-30.94
-38.49
-46.64
-56.22
-67.91
-81.69
-96.51
-110.17
-119.74
-122.34
-116.08
-100.69
-77.62
-49.64
-20.02
8.26
32.99
52.94
67.65
77.23
82.13
83.02
80.67
75.98
69.87
63.19
56.63
50.70
45.63
41.48
38.21
35.69
33.79
32.28
30.75
28.60
25.15
19.84
12.48
3.29
-7.03
-17.66
-27.87
-37.39
-46.51
-56.01
-66.89
-79.76
-94.44
-109.49
-122.39
-130.06
-129.75
-119.94
-100.89
-74.59
-44.09
-12.72
16.73
42.37
63.30
79.30
90.54
97.30
99.93
98.97
95.18
89.62
83.39
77.44
72.26
67.80
63.63
59.30
54.61
49.74
45.13
41.12
37.68
34.29
30.08
24.21
16.29
6.46
-4.54
-15.69
-26.09
-35.26
-43.28
-50.76
-58.63
-67.85
-79.18
-92.81
-107.94
-122.67
-134.19
-139.33
-135.65
-122.15
-99.71
-70.87
-38.97
-7.26
21.82
46.83
67.17
82.67
93.37
99.51
101.53
100.19
96.48
91.41
85.79
80.12
74.55
68.99
63.36
57.75
52.45
47.89
44.34
41.79
39.75
37.38
33.73
28.06
20.12
10.30
-0.52
-11.32
-21.28
-30.17
-38.37
-46.73
-56.32
-68.02
-82.11
-97.88
-113.56
-126.43
-133.46
-132.10
-121.21
-101.40
-74.91
-44.91
-14.53
13.72
38.28
58.34
73.54
83.74
89.10
90.17
87.97
83.82
78.93
74.08
69.46
64.86
59.94
54.62
49.22
44.32
40.41
37.56
35.31
32.82
29.15
23.68
16.32
7.45
-2.25
-12.13
-21.77
-31.06
-40.16
-49.56
-59.84
-71.54
-84.89
-99.44
-113.78
-125.64
-132.24
-131.09
-120.88
-101.92
-76.21
-46.76
-16.87
10.71
34.19
52.71
66.18
74.86
79.25
79.96
77.69
73.28
67.52
61.13
54.64
48.48
42.86
37.95
33.76
30.26
27.29
24.54
21.61
18.03
13.40
7.55
0.59
-7.14
-15.20
-23.26
-31.30
-39.64
-48.92
-59.78
-72.46
-86.44
-100.23
-111.42
-117.21
-115.17
-104.07
-84.41
-58.40
-29.26
-0.43
25.36
46.56
62.68
73.99
80.96
84.05
83.64
80.18
74.29
66.84
58.81
51.14
44.55
39.42
35.81
33.48
31.96
30.65
28.97
26.35
22.39
16.81
9.65
1.17
-8.17
-17.81
-27.41
-36.93
-46.85
-57.91
-70.69
-85.02
-99.62
-112.07
-119.39
-118.87
-109.07
-90.25
-64.42
-34.69
-4.46
23.41
47.02
65.48
78.67
86.94
90.88
91.21
88.73
84.33
78.83
72.88
66.90
61.05
55.36
49.93
44.90
40.57
37.08
34.26
31.55
28.16
23.38
16.92
8.97
0.13
-8.90
-17.58
-25.73
-33.59
-41.76
-51.10
-62.39
-75.84
-90.76
-105.19
-116.21
-120.71
-116.36
-102.45
-80.24
-52.49
-22.58
6.39
32.30
54.01
71.15
83.71
91.74
95.41
95.14
91.71
86.18
79.72
73.25
67.31
61.94
56.96
52.12
47.31
42.74
38.69
35.39
32.77
30.41
27.66
23.80
18.33
11.22
2.88
-5.97
-14.59
-22.51
-29.73
-36.68
-44.15
-52.93
-63.65
-76.32
-90.20
-103.56
-113.99
-118.83
-115.93
-104.39
-84.88
-59.53
-31.27
-3.07
22.69
44.49
61.57
73.69
80.92
83.59
82.35
78.17
72.24
65.71
59.41
53.83
49.03
44.85
41.18
37.98
35.37
33.42
32.10
31.13
29.94
27.82
24.16
18.63
11.39
2.99
-5.76
-14.07
-21.53
-28.21
-34.63
-41.57
-49.82
-59.79
-71.31
-83.23
-93.62
-99.95
-99.93
-92.10
-76.49
-54.59
-28.97
-2.51
22.27
43.59
60.39
72.12
78.63
80.13
77.31
71.27
63.40
55.02
47.13
40.23
34.40
29.57
25.64
22.64
20.65
19.58
19.09
18.56
17.24
14.54
10.23
4.49
-2.16
-9.11
-15.93
-22.41
-28.61
-34.87
-41.60
-49.26
-58.14
-68.06
-78.12
-86.63
-91.43
-90.42
-82.36
-67.30
-46.70
-22.96
1.21
23.49
42.26
56.76
66.77
72.41
73.99
72.02
67.20
60.47
52.88
45.38
38.61
32.85
28.07
24.13
20.95
18.61
17.14
16.38
15.80
14.59
11.91
7.27
0.75
-7.03
-15.16
-22.80
-29.52
-35.41
-41.05
-47.28
-54.91
-64.35
-75.21
-86.21
-95.18
-99.66
-97.57
-87.92
-71.21
-49.29
-24.76
-0.26
22.14
41.12
56.08
66.81
73.38
76.06
75.37
72.07
67.09
61.34
55.53
50.09
45.10
40.49
36.15
32.04
28.26
24.95
22.22
19.95
17.76
15.04
11.16
5.79
-1.01
-8.74
-16.66
-24.12
-30.78
-36.77
-42.64
-49.22
-57.25
-67.16
-78.63
-90.48
-100.75
-107.03
-107.16
-99.88
-85.23
-64.66
-40.48
-15.26
8.76
30.10
47.95
62.04
72.26
78.64
81.33
80.67
77.36
72.33
66.52
60.71
55.29
50.31
45.52
40.77
36.04
31.60
27.77
24.80
22.60
20.71
18.41
15.01
10.06
3.52
-4.21
-12.43
-20.49
-27.92
-34.60
-40.79
-47.05
-54.08
-62.58
-72.84
-84.56
-96.56
-106.86
-113.02
-112.82
-104.94
-89.44
-67.78
-42.42
-16.08
8.85
30.77
48.84
62.78
72.59
78.39
80.41
79.12
75.27
69.83
63.84
58.09
52.97
48.48
44.32
40.25
36.21
32.38
29.09
26.54
24.67
23.13
21.31
18.51
14.21
8.17
0.56
-8.12
-17.11
-25.66
-33.28
-39.89
-45.86
-51.94
-59.04
-67.81
-78.42
-90.12
-101.29
-109.66
-112.88
-109.20
-98.09
-80.33
-57.74
-32.71
-7.56
15.80
36.01
52.19
63.87
70.97
73.83
73.16
69.97
65.26
59.88
54.45
49.38
44.86
40.92
37.51
34.47
31.68
29.08
26.70
24.54
22.50
20.22
17.17
12.86
7.03
-0.17
-8.28
-16.61
-24.62
-32.01
-38.91
-45.77
-53.27
-62.01
-72.23
-83.57
-94.85
-104.21
-109.47
-108.72
-100.92
-86.20
-65.93
-42.23
-17.52
6.03
26.82
43.85
56.58
64.89
68.95
69.25
66.60
61.99
56.44
50.76
45.46
40.67
36.30
32.23
28.43
25.04
22.19
19.92
18.00
15.98
13.26
9.38
4.16
-2.20
-9.21
-16.31
-23.13
-29.57
-35.92
-42.63
-50.20
-58.98
-68.94
-79.49
-89.35
-96.64
-99.24
-95.38
-84.31
-66.61
-44.26
-19.96
3.52
24.04
40.43
52.42
60.21
64.18
64.72
62.24
57.31
50.72
43.45
36.43
30.35
25.54
21.92
19.18
16.96
14.94
12.95
10.79
8.25
5.07
1.04
-3.89
-9.55
-15.60
-21.74
-27.89
-34.30
-41.55
-50.34
-61.01
-73.11
-85.19
-94.96
-99.91
-98.02
-88.53
-72.22
-51.08
-27.73
-4.64
16.31
34.05
48.03
58.06
64.04
66.04
64.33
59.46
52.29
43.87
35.28
27.40
20.85
15.79
12.10
9.41
7.26
5.15
2.72
-0.27
-3.90
-8.10
-12.73
-17.67
-22.89
-28.63
-35.33
-43.59
-53.88
-66.14
-79.40
-91.70
-100.47
-103.21
-98.24
-85.30
-65.62
-41.61
-16.07
8.41
29.96
47.48
60.50
68.97
73.10
73.24
69.95
64.02
56.46
48.35
40.67
34.09
28.83
24.62
20.91
17.08
12.75
7.89
2.73
-2.46
-7.53
-12.59
-18.06
-24.46
-32.32
-42.05
-53.88
-67.63
-82.54
-97.15
-109.28
-116.49
-116.67
-108.68
-92.79
-70.63
-44.75
-17.89
7.58
29.96
48.32
62.22
71.56
76.47
77.23
74.40
68.79
61.42
53.44
45.78
39.05
33.33
28.31
23.45
18.29
12.66
6.69
0.67
-5.15
-10.74
-16.40
-22.63
-30.13
-39.53
-51.38
-65.81
-82.22
-99.00
-113.61
-123.00
-124.50
-116.57
-99.46
-75.04
-46.31
-16.47
11.79
36.70
57.41
73.64
85.44
92.88
96.11
95.40
91.26
84.48
76.06
67.11
58.53
50.88
44.30
38.50
33.06
27.59
21.86
15.84
9.60
3.17
-3.55
-10.75
-18.68
-27.68
-38.11
-50.38
-64.80
-81.27
-98.85
-115.50
-128.28
-134.05
-130.36
-116.34
-93.04
-63.06
-29.82
3.37
33.98
60.37
81.73
97.73
108.41
114.19
115.82
114.37
110.94
106.43
101.32
95.70
89.42
82.36
74.77
67.26
60.60
55.37
51.56
48.46
44.91
39.75
32.28
22.59
11.41
-0.23
-11.47
-21.94
-31.91
-42.12
-53.54
-67.08
-83.10
-101.09
-119.35
-135.07
-144.88
-145.71
-135.79
-115.24
-86.12
-51.77
-15.92
18.24
48.57
73.88
93.72
108.02
116.92
120.83
120.47
116.92
111.46
105.28
99.23
93.72
88.67
83.71
78.53
73.06
67.52
62.33
57.84
54.00
50.33
46.01
40.18
32.35
22.58
11.48
-0.07
-11.23
-21.50
-30.80
-39.47
-48.19
-57.73
-68.88
-82.03
-96.88
-112.03
-125.13
-133.18
-133.37
-124.04
-105.20
-78.67
-47.49
-15.05
15.72
42.87
65.40
83.01
95.64
103.39
106.48
105.46
101.26
95.15
88.43
82.16
76.88
72.58
68.86
65.24
61.41
57.36
53.30
49.59
46.36
43.55
40.74
37.42
32.97
26.98
19.34
10.31
0.42
-9.61
-19.17
-27.87
-35.69
-43.01
-50.54
-59.12
-69.53
-81.99
-95.79
-109.14
-119.39
-123.68
-119.87
-107.18
-86.51
-60.09
-30.82
-1.62
25.25
48.25
66.58
79.92
88.40
92.41
92.64
89.93
85.22
79.42
73.32
67.53
62.35
57.86
53.86
50.14
46.54
43.05
39.75
36.78
34.07
31.33
28.07
23.79
18.15
11.16
3.16
-5.23
-13.40
-20.87
-27.49
-33.44
-39.19
-45.33
-52.51
-61.22
-71.56
-82.99
-94.14
-103.01
-107.25
-104.96
-95.18
-78.36
-56.21
-31.24
-6.07
17.20
37.15
53.06
64.69
72.06
75.43
75.28
72.38
67.66
62.14
56.66
51.74
47.50
43.76
40.28
36.92
33.76
31.01
28.84
27.17
25.58
23.39
19.95
14.88
8.28
0.63
-7.30
-14.84
-21.59
-27.56
-33.09
-38.76
-45.22
-53.02
-62.40
-73.03
-83.87
-93.17
-98.82
-98.86
-92.11
-78.56
-59.44
-36.95
-13.59
8.32
27.17
42.11
52.99
60.04
63.68
64.32
62.36
58.32
52.79
46.49
40.17
34.42
29.54
25.59
22.42
19.83
17.68
15.88
14.29
12.64
10.55
7.60
3.50
-1.75
-7.87
-14.39
-20.88
-27.08
-33.07
-39.28
-46.31
-54.62
-64.15
-74.01
-82.53
-87.56
-87.12
-80.11
-66.70
-48.30
-27.17
-5.71
14.07
30.78
43.73
52.69
57.74
59.11
57.24
52.73
46.35
38.96
31.40
24.38
18.42
13.74
10.35
8.06
6.53
5.37
4.15
2.55
0.27
-2.77
-6.57
-10.95
-15.69
-20.66
-25.83
-31.38
-37.63
-44.95
-53.47
-62.83
-71.98
-79.28
-82.82
-80.92
-72.77
-58.72
-40.27
-19.62
0.90
19.30
34.35
45.47
52.63
56.12
56.30
53.63
48.60
41.86
34.18
26.44
19.41
13.64
9.30
6.12
3.61
1.13
-1.71
-5.06
-8.76
-12.50
-16.03
-19.27
-22.43
-25.92
-30.25
-35.94
-43.42
-52.74
-63.48
-74.47
-83.88
-89.57
-89.58
-82.86
-69.59
-51.22
-30.00
-8.40
11.54
28.44
41.59
50.79
56.11
57.72
55.91
51.23
44.45
36.59
28.76
21.81
16.18
11.79
8.18
4.82
1.37
-2.23
-5.76
-9.00
-11.92
-14.78
-18.01
-22.17
-27.73
-35.08
-44.47
-55.83
-68.57
-81.38
-92.25
-98.87
-99.27
-92.43
-78.70
-59.65
-37.55
-14.78
6.74
25.77
41.60
53.82
62.16
66.51
66.93
63.88
58.19
50.97
43.40
36.40
30.47
25.60
21.33
17.06
12.28
6.86
0.95
-5.07
-10.90
-16.50
-22.13
-28.26
-35.43
-44.11
-54.65
-67.11
-81.05
-95.34
-107.99
-116.46
-118.22
-111.61
-96.42
-74.06
-47.17
-18.82
8.29
32.28
52.16
67.64
78.73
85.67
88.74
88.41
85.24
79.89
73.06
65.39
57.54
50.03
43.30
37.56
32.77
28.64
24.71
20.48
15.58
9.78
3.05
-4.46
-12.49
-20.78
-29.17
-37.76
-47.01
-57.63
-70.25
-84.90
-100.58
-115.10
-125.49
-128.82
-123.03
-107.76
-84.35
-55.47
-24.35
6.03
33.39
56.43
74.59
87.86
96.53
100.98
101.77
99.58
95.28
89.86
84.22
78.99
74.33
70.03
65.68
61.03
56.17
51.46
47.33
43.94
40.93
37.50
32.67
25.78
16.70
5.95
-5.50
-16.62
-26.75
-35.76
-44.12
-52.66
-62.39
-74.10
-88.18
-104.28
-121.06
-136.24
-146.89
-150.10
-143.83
-127.59
-102.67
-71.88
-38.70
-6.36
22.73
47.40
67.35
82.80
94.07
101.42
105.04
105.33
102.89
98.63
93.52
88.41
83.76
79.65
75.86
72.01
67.88
63.50
59.16
55.21
51.85
48.88
45.74
41.62
35.80
27.99
18.34
7.49
-3.75
-14.72
-25.05
-34.76
-44.07
-53.43
-63.33
-74.31
-86.81
-100.83
-115.67
-129.62
-140.09
-144.21
-139.59
-125.23
-101.97
-72.28
-39.56
-7.20
22.23
47.26
67.36
82.54
93.03
99.09
101.08
99.66
95.79
90.64
85.30
80.45
76.32
72.71
69.25
65.68
61.99
58.37
55.09
52.25
49.69
46.95
43.39
38.39
31.58
23.01
13.16
2.82
-7.23
-16.46
-24.78
-32.64
-40.71
-49.87
-60.74
-73.55
-87.82
-102.21
-114.60
-122.41
-123.28
-115.70
-99.58
-76.33
-48.41
-18.80
9.82
35.37
56.54
72.63
83.42
89.00
89.88
86.99
81.54
74.81
67.97
61.74
56.39
51.80
47.68
43.84
40.29
37.21
34.78
32.94
31.22
28.94
25.32
19.84
12.52
3.89
-5.25
-14.12
-22.31
-29.89
-37.43
-45.76
-55.66
-67.49
-80.80
-94.20
-105.43
-111.82
-111.13
-102.21
-85.46
-62.78
-36.90
-10.69
13.54
34.24
50.67
62.56
70.00
73.27
72.81
69.29
63.44
56.08
48.04
40.10
32.95
27.18
23.02
20.34
18.67
17.30
15.56
12.99
9.43
4.98
-0.07
-5.47
-11.10
-16.97
-23.27
-30.31
-38.53
-48.40
-60.14
-73.44
-87.12
-99.10
-106.71
-107.49
-99.93
-84.12
-61.78
-35.77
-9.26
15.11
35.66
51.74
63.34
70.79
74.45
74.59
71.59
66.04
58.74
50.71
42.95
36.19
30.72
26.46
22.97
19.69
16.20
12.21
7.66
2.60
-2.89
-8.72
-14.85
-21.38
-28.55
-36.78
-46.60
-58.31
-71.73
-85.78
-98.56
-107.50
-110.11
-104.70
-90.99
-70.28
-45.04
-18.23
7.48
30.22
49.04
63.66
74.01
80.11
81.98
79.84
74.40
66.74
58.15
49.87
42.63
36.67
31.77
27.46
23.34
19.12
14.70
10.05
5.20
0.16
-5.16
-10.87
-17.24
-24.61
-33.43
-44.18
-57.00
-71.56
-86.69
-100.36
-109.96
-112.96
-107.59
-93.48
-71.84
-45.14
-16.44
11.36
36.06
56.43
72.00
82.89
89.42
91.99
91.09
87.24
81.14
73.71
65.91
58.62
52.46
47.60
43.76
40.44
36.98
32.82
27.70
21.56
14.60
7.10
-0.69
-8.67
-16.89
-25.55
-35.01
-45.70
-58.03
-72.09
-87.28
-102.06
-113.98
-120.19
-118.24
-106.94
-86.86
-60.26
-30.39
-0.59
26.48
49.21
66.96
79.78
87.98
92.15
92.94
91.23
87.86
83.56
78.83
73.84
68.58
63.02
57.33
51.93
47.25
43.60
40.86
38.51
35.73
31.74
26.04
18.55
9.65
-0.03
-9.75
-19.01
-27.64
-35.95
-44.67
-54.75
-66.92
-81.13
-96.30
-110.13
-119.63
-121.97
-115.41
-99.89
-77.07
-49.78
-21.10
6.34
30.86
51.62
68.34
80.91
89.23
93.35
93.60
90.70
85.71
79.81
74.00
68.92
64.82
61.58
58.92
56.49
54.13
51.74
49.39
47.03
44.50
41.44
37.29
31.59
24.13
15.10
5.14
-4.89
-14.22
-22.44
-29.61
-36.23
-42.98
-50.57
-59.54
-70.05
-81.75
-93.55
-103.66
-109.87
-110.05
-102.83
-88.11
-67.21
-42.44
-16.51
8.21
30.01
48.07
62.07
72.03
78.07
80.36
79.28
75.47
69.85
63.48
57.37
52.20
48.25
45.39
43.21
41.26
39.28
37.21
35.13
33.18
31.27
29.10
26.17
21.99
16.29
9.14
1.08
-7.19
-14.96
-21.81
-27.73
-33.10
-38.56
-44.88
-52.64
-62.12
-72.95
-83.97
-93.34
-98.81
-98.42
-91.03
-76.79
-57.08
-34.12
-10.30
12.29
32.22
48.64
61.14
69.55
73.92
74.55
72.03
67.32
61.51
55.65
50.53
46.57
43.76
41.82
40.37
39.05
37.71
36.36
35.03
33.70
32.16
30.02
26.85
22.37
16.48
9.43
1.64
-6.37
-14.08
-21.18
-27.57
-33.35
-38.81
-44.50
-51.01
-58.88
-68.29
-78.77
-89.07
-97.35
-101.54
-99.95
-91.79
-77.44
-58.34
-36.57
-14.32
6.55
24.73
39.44
50.35
57.37
60.73
60.90
58.58
54.69
50.14
45.68
41.76
38.50
35.74
33.28
30.96
28.74
26.74
25.04
23.65
22.38
20.81
18.41
14.79
9.80
3.60
-3.29
-10.23
-16.69
-22.47
-27.78
-33.18
-39.43
-47.16
-56.60
-67.26
-77.90
-86.69
-91.60
-90.95
-83.92
-70.83
-53.10
-32.80
-12.20
6.85
23.10
36.00
45.51
51.82
55.22
56.07
54.72
51.64
47.30
42.23
36.89
31.67
26.82
22.55
18.99
16.22
14.19
12.65
11.25
9.47
6.92
3.42
-0.93
-5.79
-10.70
-15.41
-19.92
-24.59
-30.01
-36.81
-45.36
-55.47
-66.23
-75.98
-82.62
-84.15
-79.31
-68.08
-51.70
-32.29
-12.20
6.67
23.10
36.52
46.74
53.70
57.43
58.08
56.11
52.18
47.10
41.53
36.01
30.85
26.28
22.47
19.57
17.54
16.16
14.97
13.47
11.16
7.76
3.25
-2.16
-8.13
-14.27
-20.34
-26.26
-32.16
-38.34
-45.19
-53.02
-61.81
-70.93
-78.99
-84.16
-84.51
-78.77
-66.76
-49.61
-29.37
-8.50
10.81
27.10
39.65
48.36
53.40
55.07
53.74
49.97
44.46
38.09
31.68
25.86
20.99
17.14
14.17
11.89
10.11
8.56
6.99
5.04
2.42
-1.03
-5.22
-9.90
-14.79
-19.67
-24.59
-29.75
-35.54
-42.31
-50.18
-58.79
-67.21
-74.01
-77.46
-76.10
-69.17
-56.89
-40.51
-21.92
-3.13
14.20
28.92
40.46
48.53
53.03
53.97
51.62
46.50
39.47
31.59
23.91
17.29
12.13
8.47
6.00
4.26
2.80
1.25
-0.57
-2.78
-5.37
-8.30
-11.50
-14.97
-18.87
-23.54
-29.43
-36.85
-45.71
-55.22
-63.93
-70.05
-71.84
-68.22
-58.98
-44.92
-27.59
-8.91
9.28
25.53
38.83
48.62
54.58
56.59
54.69
49.24
41.09
31.52
21.99
13.80
7.66
3.52
0.72
-1.63
-4.21
-7.20
-10.38
-13.36
-15.94
-18.18
-20.60
-23.82
-28.43
-34.91
-43.31
-53.28
-63.90
-73.71
-80.87
-83.64
-80.76
-71.92
-57.81
-39.95
-20.29
-0.77
16.95
31.69
42.66
49.50
52.12
50.76
46.06
38.96
30.61
22.12
14.35
7.70
2.12
-2.73
-7.26
-11.60
-15.64
-19.07
-21.63
-23.38
-24.81
-26.77
-30.29
-36.27
-45.02
-56.05
-67.93
-78.59
-85.69
-87.31
-82.42
-71.13
-54.59
-34.64
-13.33
7.41
26.03
41.38
52.71
59.64
62.17
60.66
55.88
48.83
40.65
32.38
24.70
17.91
11.83
6.10
0.37
-5.41
-10.99
-15.93
-20.02
-23.40
-26.74
-31.06
-37.46
-46.69
-58.81
-72.87
-86.97
-98.53
-104.89
-104.03
-95.22
-79.13
-57.68
-33.31
-8.46
14.94
35.56
52.50
65.17
73.22
76.65
75.86
71.70
65.29
57.77
50.18
43.18
36.96
31.30
25.82
20.16
14.27
8.37
2.81
-2.19
-6.83
-11.77
-17.88
-26.06
-36.93
-50.70
-66.89
-84.30
-100.75
-113.45
-119.47
-116.60
-104.08
-82.92
-55.63
-25.44
4.57
32.12
55.85
75.20
90.01
100.29
106.15
107.86
105.90
101.01
94.08
86.01
77.58
69.38
61.79
55.09
49.44
44.82
40.97
37.39
33.34
28.09
21.20
12.65
2.98
-7.07
-16.84
-26.10
-35.16
-44.90
-56.41
-70.54
-87.35
-105.63
-122.86
-135.62
-140.46
-134.97
-118.60
-92.82
-60.66
-25.83
8.22
38.94
64.91
85.57
100.96
111.40
117.37
119.46
118.34
114.82
109.75
103.99
98.24
92.94
88.27
84.19
80.49
76.93
73.33
69.59
65.62
61.38
56.73
51.50
45.41
38.19
29.68
19.89
9.13
-2.17
-13.43
-24.23
-34.34
-43.88
-53.29
-63.19
-74.30
-87.22
-102.06
-118.07
-133.47
-145.62
-151.54
-148.78
-136.16
-114.22
-85.10
-51.89
-17.95
13.93
41.77
64.54
81.95
94.16
101.65
105.11
105.33
103.14
99.34
94.71
89.87
85.30
81.31
78.04
75.45
73.38
71.56
69.70
67.50
64.78
61.43
57.46
52.89
47.63
41.54
34.41
26.12
16.72
6.46
-4.27
-15.00
-25.38
-35.13
-44.19
-52.68
-61.00
-69.82
-79.88
-91.65
-104.84
-118.09
-129.04
-134.76
-132.73
-121.51
-101.39
-74.24
-43.02
-10.97
19.13
45.29
66.49
82.48
93.49
100.11
103.04
103.06
100.84
96.99
91.99
86.21
80.08
74.03
68.55
64.06
60.80
58.71
57.45
56.47
55.18
53.06
49.84
45.54
40.31
34.46
28.23
21.70
14.87
7.60
-0.21
-8.53
-17.12
-25.67
-33.85
-41.52
-48.78
-56.06
-64.00
-73.19
-83.79
-95.21
-105.94
-113.75
-116.20
-111.41
-98.71
-78.91
-54.08
-26.97
-0.29
23.82
44.09
59.93
71.26
78.20
81.09
80.48
77.13
72.00
66.08
60.22
54.98
50.61
47.05
44.13
41.64
39.44
37.52
35.90
34.61
33.53
32.35
30.55
27.63
23.16
17.11
9.85
2.06
-5.61
-12.74
-19.25
-25.38
-31.48
-37.92
-44.99
-52.96
-61.96
-71.86
-81.95
-90.90
-96.90
-98.04
-92.95
-81.27
-63.79
-42.33
-19.18
3.40
23.60
40.20
52.67
60.83
64.85
65.11
62.20
56.96
50.38
43.48
37.10
31.75
27.58
24.39
21.90
19.78
17.84
15.95
13.95
11.68
8.89
5.36
0.94
-4.31
-10.23
-16.50
-22.78
-28.89
-34.84
-41.02
-47.91
-55.94
-64.98
-74.23
-82.08
-86.54
-85.81
-78.83
-65.74
-47.83
-27.21
-6.16
13.33
29.92
42.88
51.96
57.23
58.90
57.38
53.14
46.93
39.57
31.91
24.73
18.68
14.23
11.49
10.27
9.97
9.83
9.08
7.21
4.12
0.04
-4.62
-9.55
-14.64
-20.02
-25.94
-32.67
-40.50
-49.60
-59.80
-70.42
-80.15
-87.09
-89.29
-85.31
-74.84
-58.82
-39.17
-18.25
1.88
19.70
34.42
45.67
53.31
57.28
57.63
54.64
48.96
41.53
33.44
25.72
19.10
13.90
10.04
7.17
4.83
2.60
0.21
-2.50
-5.50
-8.79
-12.32
-16.12
-20.31
-25.18
-31.18
-38.84
-48.43
-59.67
-71.44
-81.84
-88.54
-89.51
-83.67
-71.20
-53.53
-32.83
-11.42
8.76
26.33
40.48
50.83
57.24
59.78
58.70
54.55
48.14
40.45
32.52
25.24
19.09
14.10
9.94
6.14
2.29
-1.77
-5.89
-9.80
-13.26
-16.24
-19.04
-22.25
-26.67
-33.08
-41.98
-53.32
-66.21
-78.99
-89.37
-95.06
-94.27
-86.27
-71.66
-52.07
-29.74
-6.94
14.46
33.14
48.34
59.69
67.09
70.65
70.68
67.66
62.29
55.39
47.84
40.38
33.59
27.70
22.60
17.93
13.25
8.27
2.92
-2.59
-8.02
-13.22
-18.34
-23.79
-30.14
-37.95
-47.62
-59.20
-72.24
-85.68
-97.80
-106.46
-109.51
-105.37
-93.48
-74.58
-50.47
-23.67
3.28
28.16
49.42
66.20
78.24
85.67
88.93
88.71
85.82
81.10
75.28
68.92
62.34
55.72
49.22
43.12
37.76
33.48
30.38
28.13
26.01
23.12
18.67
12.28
4.13
-5.16
-14.91
-24.57
-34.01
-43.66
-54.22
-66.50
-80.85
-96.79
-112.77
-126.26
-134.28
-134.27
-124.85
-106.35
-80.67
-50.74
-19.72
9.76
35.87
57.66
74.77
87.21
95.25
99.33
100.15
98.52
95.24
91.05
86.41
81.57
76.59
71.45
66.14
60.80
55.68
51.11
47.36
44.39
41.86
39.03
35.10
29.36
21.62
12.12
1.58
-9.19
-19.53
-29.14
-38.20
-47.16
-56.64
-67.24
-79.38
-92.95
-107.04
-119.85
-128.87
-131.51
-125.93
-111.62
-89.65
-62.34
-32.62
-3.26
23.58
46.57
65.09
78.97
88.40
93.75
95.60
94.62
91.62
87.45
82.91
78.62
74.90
71.82
69.18
66.68
64.08
61.21
58.01
54.48
50.63
46.41
41.75
36.56
30.68
23.96
16.29
7.75
-1.46
-10.89
-20.08
-28.72
-36.70
-44.17
-51.43
-58.96
-67.31
-76.97
-88.17
-100.41
-112.35
-121.75
-125.96
-122.76
-111.13
-91.69
-66.57
-38.75
-11.19
13.86
35.15
52.31
65.43
74.75
80.46
82.85
82.35
79.70
75.78
71.56
67.77
64.75
62.45
60.54
58.64
56.49
54.09
51.63
49.36
47.35
45.40
43.00
39.45
34.18
26.96
18.06
8.16
-1.90
-11.49
-20.35
-28.64
-36.72
-45.04
-53.93
-63.66
-74.40
-86.05
-97.89
-108.46
-115.58
-116.90
-110.76
-96.76
-76.10
-51.17
-24.84
0.41
22.85
41.62
56.42
67.12
73.77
76.54
75.96
72.94
68.64
64.13
60.04
56.55
53.35
50.02
46.29
42.17
38.02
34.31
31.32
29.03
26.98
24.46
20.72
15.39
8.56
0.74
-7.32
-14.98
-21.92
-28.28
-34.54
-41.30
-49.12
-58.36
-68.95
-80.26
-90.96
-99.16
-102.70
-99.87
-89.90
-73.35
-51.98
-28.25
-4.67
16.77
34.82
48.96
59.11
65.48
68.39
68.27
65.73
61.46
56.19
50.58
45.21
40.42
36.38
33.05
30.31
28.01
25.96
23.96
21.76
19.06
15.53
10.96
5.30
-1.28
-8.38
-15.60
-22.59
-29.37
-36.26
-43.88
-52.80
-63.15
-74.26
-84.52
-91.76
-93.75
-89.02
-77.38
-59.97
-38.91
-16.62
4.67
23.42
38.72
50.24
57.94
62.00
62.78
60.72
56.42
50.53
43.84
37.10
31.06
26.17
22.60
20.11
18.22
16.50
14.58
12.33
9.68
6.55
2.81
-1.65
-6.83
-12.60
-18.75
-25.19
-32.16
-40.09
-49.30
-59.56
-69.78
-78.03
-82.07
-80.06
-71.29
-56.44
-37.38
-16.54
3.82
22.00
37.05
48.50
56.19
60.10
60.39
57.50
52.16
45.39
38.21
31.49
25.82
21.42
18.17
15.67
13.47
11.11
8.30
4.96
1.21
-2.79
-6.88
-11.13
-15.73
-20.96
-27.22
-34.76
-43.75
-53.95
-64.55
-74.15
-80.90
-82.90
-78.86
-68.54
-52.86
-33.70
-13.24
6.56
24.23
38.89
49.93
56.91
59.52
57.75
52.18
43.99
34.79
26.17
19.22
14.24
10.81
8.06
5.20
1.81
-1.97
-5.72
-9.00
-11.71
-14.16
-16.92
-20.60
-25.70
-32.50
-41.02
-50.96
-61.52
-71.31
-78.52
-81.23
-77.99
-68.29
-52.87
-33.47
-12.35
8.30
26.79
42.05
53.49
60.83
63.95
63.00
58.46
51.30
42.77
34.24
26.76
20.83
16.31
12.66
9.19
5.45
1.43
-2.60
-6.25
-9.38
-12.23
-15.46
-19.93
-26.52
-35.72
-47.44
-60.73
-73.81
-84.27
-89.72
-88.37
-79.59
-64.21
-44.20
-22.08
-0.24
19.56
36.35
49.76
59.61
65.80
68.25
67.09
62.86
56.50
49.24
42.17
36.01
30.95
26.73
22.92
19.12
15.17
11.11
7.07
3.13
-0.79
-4.95
-9.73
-15.65
-23.24
-32.90
-44.79
-58.40
-72.45
-84.90
-93.31
-95.44
-89.95
-76.88
-57.62
-34.58
-10.46
12.42
32.50
49.03
61.88
71.18
77.16
80.07
80.26
78.15
74.31
69.33
63.75
58.09
52.70
47.84
43.56
39.76
36.17
32.50
28.44
23.81
18.55
12.73
6.50
-0.00
-6.70
-13.71
-21.34
-30.08
-40.49
-52.80
-66.66
-80.79
-93.04
-100.85
-101.92
-94.92
-79.92
-58.40
-32.77
-5.79
20.08
43.04
62.03
76.58
86.68
92.70
95.14
94.66
91.99
87.91
83.14
78.32
73.89
70.07
66.86
64.08
61.54
59.10
56.76
54.47
52.15
49.50
46.16
41.86
36.52
30.32
23.67
16.93
10.28
3.66
-3.20
-10.47
-18.23
-26.26
-34.15
-41.48
-48.00
-53.71
-58.95
-64.38
-70.78
-78.83
-88.67
-99.71
-110.41
-118.64
-122.05
-118.87
-108.36
-91.04
-68.54
-43.11
-17.05
7.67
29.64
47.92
62.07
71.95
77.77
80.08
79.68
77.53
74.52
71.30
68.19
65.28
62.51
59.91
57.56
55.61
54.16
53.13
52.19
50.85
48.60
45.11
40.33
34.55
28.27
21.95
15.89
10.03
4.16
-2.04
-8.72
-15.85
-23.12
-30.18
-36.70
-42.52
-47.73
-52.67
-57.90
-64.08
-71.68
-80.65
-90.12
-98.44
-103.53
-103.43
-96.97
-84.10
-65.95
-44.44
-21.74
0.18
19.85
36.40
49.41
58.87
64.98
68.17
68.97
67.97
65.69
62.56
58.90
54.98
50.97
47.08
43.47
40.31
37.70
35.61
33.90
32.29
30.49
28.26
25.53
22.36
18.89
15.23
11.31
6.96
2.02
-3.62
-9.85
-16.38
-22.85
-29.00
-34.66
-39.91
-44.99
-50.33
-56.45
-63.68
-71.99
-80.68
-88.36
-93.17
-93.32
-87.65
-76.01
-59.42
-39.68
-18.94
0.85
18.28
32.52
43.29
50.60
54.72
56.03
55.03
52.35
48.63
44.52
40.56
37.16
34.52
32.70
31.54
30.80
30.27
29.72
29.01
28.05
26.78
25.09
22.87
19.97
16.24
11.57
6.00
-0.31
-7.04
-13.80
-20.20
-25.98
-31.10
-35.73
-40.16
-44.83
-50.18
-56.55
-64.02
-72.14
-79.82
-85.50
-87.51
-84.57
-76.23
-63.00
-46.22
-27.73
-9.34
7.44
21.57
32.48
40.02
44.35
45.80
44.93
42.34
38.71
34.73
30.97
27.82
25.41
23.67
22.39
21.37
20.53
19.88
19.45
19.13
18.65
17.52
15.26
11.52
6.30
-0.01
-6.76
-13.28
-19.12
-24.17
-28.75
-33.42
-38.86
-45.54
-53.59
-62.58
-71.52
-78.89
-82.94
-82.17
-75.81
-64.04
-48.02
-29.51
-10.43
7.52
23.11
35.62
44.72
50.41
52.87
52.52
49.86
45.46
39.94
33.83
27.67
21.84
16.69
12.41
9.11
6.78
5.31
4.41
3.58
2.28
0.03
-3.39
-7.87
-13.08
-18.64
-24.31
-30.09
-36.21
-42.97
-50.64
-59.26
-68.49
-77.48
-84.97
-89.34
-89.09
-83.29
-71.92
-55.95
-37.10
-17.37
1.41
17.92
31.38
41.48
48.14
51.44
51.61
49.05
44.40
38.46
32.07
25.99
20.74
16.48
13.13
10.36
7.80
5.14
2.17
-1.21
-4.94
-9.03
-13.46
-18.26
-23.53
-29.35
-35.87
-43.26
-51.83
-61.73
-72.86
-84.49
-95.17
-102.91
-105.68
-102.04
-91.68
-75.55
-55.57
-34.05
-13.07
5.84
21.77
34.29
43.22
48.51
50.25
48.71
44.48
38.36
31.34
24.35
18.10
12.86
8.59
4.90
1.35
-2.41
-6.49
-10.80
-15.24
-19.73
-24.43
-29.69
-36.07
-44.20
-54.58
-67.27
-81.53
-95.72
-107.49
-114.28
-114.15
-106.27
-91.18
-70.52
-46.48
-21.26
3.29
25.72
44.93
60.14
70.85
76.96
78.77
76.96
72.51
66.43
59.76
53.20
47.11
41.39
35.67
29.57
22.99
16.22
9.79
4.12
-0.82
-5.61
-11.28
-18.91
-29.36
-42.90
-59.10
-76.72
-93.74
-107.55
-115.36
-114.97
-105.43
-87.40
-63.07
-35.39
-7.26
19.16
42.65
62.70
79.01
91.29
99.19
102.61
101.88
97.91
91.84
84.84
77.76
70.91
64.28
57.59
50.61
43.27
35.70
28.15
20.89
14.04
7.45
0.66
-7.00
-16.35
-28.12
-42.63
-59.60
-77.76
-94.89
-108.12
-114.56
-112.12
-100.14
-79.59
-52.80
-22.75
7.63
36.00
60.80
81.22
96.95
107.96
114.50
116.97
115.94
112.16
106.47
99.84
93.19
87.30
82.56
78.96
75.94
72.75
68.67
63.25
56.50
48.73
40.39
31.83
23.16
14.28
4.88
-5.43
-17.15
-30.71
-46.21
-62.95
-79.17
-92.14
-98.84
-96.89
-85.44
-65.68
-40.39
-13.13
12.77
35.04
52.65
65.59
74.28
79.18
80.50
78.45
73.35
65.94
57.39
49.04
42.06
37.14
34.27
32.84
31.94
30.74
28.71
25.73
22.00
17.84
13.51
9.05
4.31
-0.99
-7.16
-14.49
-23.26
-33.60
-45.32
-57.65
-69.07
-77.30
-79.87
-74.70
-60.92
-39.16
-11.58
18.77
48.72
75.61
97.71
114.13
124.72
129.71
129.63
125.18
117.29
106.95
95.11
82.60
69.97
57.64
45.99
35.40
26.32
19.06
13.69
9.85
6.84
3.75
-0.26
-5.69
-12.68
-20.96
-29.97
-39.04
-47.63
-55.51
-62.87
-70.34
-78.80
-88.82
-100.19
-111.58
-120.66
-124.69
-121.47
-110.07
-91.22
-67.03
-40.31
-13.77
10.58
31.54
48.64
61.81
71.17
76.97
79.67
79.84
78.20
75.40
71.96
68.17
64.17
60.08
56.13
52.59
49.79
47.88
46.70
45.75
44.26
41.40
36.65
29.89
21.49
12.14
2.59
-6.68
-15.56
-24.30
-33.42
-43.47
-54.67
-66.72
-78.62
-88.76
-95.15
-96.06
-90.52
-78.61
-61.60
-41.49
-20.57
-0.77
16.53
30.64
41.36
48.79
53.29
55.24
55.16
53.59
51.08
48.10
45.03
42.01
39.09
36.23
33.41
30.68
28.15
25.88
23.75
21.43
18.46
14.37
9.01
2.51
-4.62
-11.68
-18.11
-23.68
-28.59
-33.47
-39.17
-46.36
-55.11
-64.66
-73.42
-79.27
-80.22
-75.04
-63.67
-47.26
-27.84
-7.70
11.10
27.15
39.69
48.53
53.79
55.84
55.12
52.11
47.32
41.32
34.66
27.86
21.39
15.62
10.75
6.90
4.03
1.97
0.54
-0.50
-1.36
-2.21
-3.26
-4.69
-6.69
-9.45
-13.08
-17.64
-23.12
-29.56
-36.89
-44.87
-52.81
-59.54
-63.51
-63.21
-57.69
-47.01
-32.28
-15.38
1.56
16.75
29.07
38.03
43.58
45.83
44.93
41.15
35.02
27.35
19.25
11.81
5.86
1.75
-0.72
-2.13
-3.13
-4.28
-5.85
-7.79
-9.86
-11.81
-13.60
-15.42
-17.64
-20.69
-24.89
-30.43
-37.20
-44.85
-52.72
-59.76
-64.69
-66.17
-63.17
-55.30
-43.04
-27.64
-10.81
5.73
20.59
32.92
42.28
48.51
51.50
51.27
48.01
42.29
35.09
27.70
21.36
16.82
14.10
12.54
11.11
8.89
5.49
1.08
-3.79
-8.59
-13.07
-17.43
-22.12
-27.69
-34.58
-42.93
-52.51
-62.64
-72.18
-79.65
-83.53
-82.61
-76.32
-65.00
-49.74
-32.20
-14.25
2.43
16.53
27.23
34.18
37.44
37.36
34.49
29.58
23.40
16.73
10.23
4.19
-1.37
-6.73
-12.15
-17.74
-23.25
-28.34
-32.72
-36.51
-40.21
-44.62
-50.53
-58.39
-68.06
-78.70
-88.88
-96.80
-100.68
-99.18
-91.78
-78.95
-61.92
-42.47
-22.37
-3.12
14.18
28.82
40.29
48.21
52.46
53.23
51.13
47.02
41.79
