1523362506.00
64.000000
-0.00
-0.00
-0.00
-0.00
-0.00
-0.00
-0.00
-0.00
-0.00
-0.00
0.00
0.01
0.01
-0.00
-0.03
-0.05
-0.05
0.00
0.13
0.36
0.66
1.01
1.37
1.72
2.06
2.40
2.79
3.24
3.80
4.42
5.06
5.66
6.20
6.68
7.15
7.68
8.31
9.14
10.09
11.04
11.88
12.56
13.14
13.76
14.65
15.96
17.91
20.32
22.90
25.38
27.58
29.57
31.68
34.32
37.81
42.54
48.15
54.10
59.83
64.97
69.58
74.14
79.34
85.71
93.76
103.00
112.62
121.73
129.77
136.75
143.30
150.75
157.77
166.64
177.95
191.79
206.97
220.57
228.25
225.36
208.53
176.87
132.76
80.05
23.07
-34.94
-92.44
-149.16
-205.23
-260.37
-313.74
-363.87
-409.83
-450.89
-486.47
-515.69
-537.16
-549.12
-549.83
-538.19
-513.99
-478.40
-433.55
-382.06
-326.57
-269.32
-212.05
-156.01
-102.23
-51.57
-5.03
36.54
72.48
102.50
126.75
145.74
160.18
170.77
178.15
182.70
184.72
184.42
182.10
178.10
172.81
166.67
160.00
153.06
145.99
138.87
131.73
124.63
117.61
110.76
104.15
97.82
91.81
86.14
80.83
75.86
71.27
67.05
63.21
59.76
56.69
54.01
51.72
49.81
48.27
47.09
46.21
45.58
45.09
44.61
43.97
43.00
41.53
39.40
36.49
32.75
28.21
22.92
17.01
10.71
4.27
-2.03
-7.95
-13.23
-17.71
-21.25
-23.79
-25.33
-25.96
-25.77
-24.91
-23.51
-21.72
-19.68
-17.47
-15.16
-12.78
-10.37
-7.95
-5.53
-3.09
-0.60
1.94
4.56
7.29
10.15
13.12
16.17
19.27
22.44
25.66
28.97
32.37
35.91
39.67
43.56
47.55
51.63
55.79
60.07
64.49
69.10
73.99
79.23
84.68
90.26
95.93
101.65
107.40
113.17
118.97
124.83
130.78
136.53
141.85
146.52
150.34
152.99
154.12
153.25
149.67
144.73
138.92
132.53
125.77
118.79
111.71
104.61
97.60
90.79
84.35
78.13
72.07
66.15
60.40
54.87
49.62
44.73
40.26
36.33
32.80
29.58
26.62
23.87
21.30
18.90
16.69
14.69
12.95
11.36
9.87
8.47
7.14
5.87
4.67
3.56
2.56
1.67
0.84
-0.01
-0.85
-1.70
-2.49
-3.21
-3.82
-4.33
-4.74
-5.13
-5.57
-6.08
-6.63
-7.20
-7.71
-8.17
-8.57
-8.98
-9.50
-10.22
-11.18
-12.32
-13.54
-14.70
-15.72
-16.67
-17.71
-19.07
-20.99
-23.52
-26.55
-29.82
-33.01
-35.93
-38.66
-41.58
-45.17
-49.86
-55.80
-62.73
-70.10
-77.29
-83.90
-90.00
-96.17
-103.23
-111.89
-122.41
-134.44
-147.25
-159.98
-172.14
-183.73
-195.20
-207.36
-221.11
-237.41
-257.14
-280.63
-307.06
-333.79
-356.61
-370.89
-373.30
-363.19
-342.84
-316.41
-288.22
-261.29
-236.76
-214.45
-193.74
-174.50
-157.01
-141.56
-127.93
-115.26
-102.54
-89.17
-75.24
-61.43
-48.75
-38.16
-30.16
-24.56
-20.48
-16.68
-12.08
-6.29
0.45
7.37
13.64
18.71
22.42
25.15
27.44
29.80
32.39
35.09
37.63
39.77
41.44
42.61
43.36
43.83
44.16
44.41
44.50
44.27
43.61
42.54
41.22
39.83
38.46
37.21
36.11
35.17
34.30
33.41
32.49
31.66
31.14
31.06
31.34
31.75
31.92
31.48
30.14
27.89
25.07
22.27
20.13
18.88
18.33
18.00
17.37
16.19
14.48
12.52
10.61
8.92
7.50
6.38
5.78
6.14
7.78
10.54
13.65
15.94
16.34
14.34
10.16
4.56
-1.34
-6.38
-9.62
-10.50
-9.04
-5.62
-0.97
4.11
8.84
12.64
15.28
16.74
17.08
16.18
13.85
10.02
4.91
-0.80
-6.25
-10.47
-12.81
-13.04
-11.35
-8.20
-4.08
0.64
5.70
10.76
15.30
18.83
21.05
21.94
21.77
20.81
19.36
17.67
15.87
14.13
12.49
11.06
9.88
9.02
8.47
8.10
7.81
7.51
7.32
7.39
7.84
8.68
9.62
10.26
10.08
8.83
6.62
3.90
1.19
-1.12
-2.74
-3.52
-3.32
-2.19
-0.26
2.19
4.88
7.64
10.35
12.89
15.19
17.13
18.55
19.34
19.49
19.14
18.56
18.05
17.74
17.54
17.22
16.55
15.45
13.95
12.17
10.28
8.38
6.52
4.60
2.54
0.30
-2.09
-4.58
-7.36
-10.62
-14.40
-18.42
-22.05
-24.62
-25.57
-24.63
-21.91
-17.73
-12.69
-7.43
-2.49
1.74
5.11
7.58
9.29
10.54
11.75
13.30
15.26
17.49
19.69
21.62
23.16
24.26
24.97
25.47
25.97
26.62
27.46
28.32
29.02
29.41
29.43
29.06
28.28
27.10
25.53
23.47
20.75
17.26
13.16
8.96
5.46
3.38
3.03
4.21
6.27
8.30
9.40
8.96
6.84
3.31
-1.14
-5.98
-10.77
-15.08
-18.64
-21.27
-23.05
-24.22
-24.93
-25.25
-25.13
-24.56
-23.69
-22.78
-22.10
-21.81
-21.89
-22.13
-22.20
-21.83
-20.94
-19.72
-18.41
-17.19
-16.12
-15.10
-14.08
-12.98
-11.83
-10.69
-9.62
-8.68
-7.72
-6.44
-4.54
-1.89
1.33
4.74
7.89
10.53
12.56
14.06
15.25
16.37
17.66
19.27
21.17
23.33
25.55
27.59
29.13
29.90
29.83
29.06
27.92
26.64
25.28
23.90
22.46
21.03
19.64
18.29
16.98
15.74
14.66
13.84
13.31
13.06
12.96
12.73
11.97
10.24
7.42
3.76
-0.06
-3.29
-5.30
-5.76
-4.71
-2.54
0.21
3.02
5.63
8.01
10.21
12.15
13.55
14.18
14.02
13.33
12.53
12.02
11.96
12.28
12.64
12.64
12.04
10.89
9.44
7.98
6.57
5.16
3.64
1.99
0.27
-1.48
-3.24
-4.95
-6.52
-7.90
-9.09
-10.07
-10.78
-11.03
-10.55
-9.17
-6.83
-3.84
-0.80
1.46
2.26
1.46
-0.48
-2.68
-4.39
-5.37
-5.86
-6.43
-7.52
-9.28
-11.55
-13.84
-15.71
-16.76
-16.87
-16.11
-14.58
-12.56
-10.45
-8.79
-8.11
-8.59
-9.97
-11.65
-13.00
-13.62
-13.30
-12.00
-9.67
-6.21
-1.60
4.07
10.45
16.88
22.60
26.86
29.22
29.53
27.94
24.67
20.04
14.59
9.02
4.11
0.35
-2.09
-3.37
-3.67
-3.09
-1.57
1.00
4.48
8.36
11.84
14.07
14.65
13.80
12.17
10.48
9.13
8.11
7.20
6.16
4.87
3.28
1.45
-0.53
-2.55
-4.47
-6.28
-8.03
-9.81
-11.81
-14.15
-16.93
-20.03
-23.22
-26.13
-28.48
-30.09
-30.86
-30.82
-30.01
-28.68
-27.07
-25.42
-23.83
-22.27
-20.65
-18.83
-16.89
-15.12
-14.02
-14.02
-15.11
-16.68
-17.64
-16.90
-13.93
-8.93
-2.63
4.06
10.39
15.98
20.76
24.78
28.05
30.42
31.65
31.63
30.45
28.45
26.01
23.50
21.26
19.52
18.41
17.83
17.53
17.18
16.52
15.49
14.10
12.49
10.72
8.79
6.59
3.96
0.85
-2.61
-6.05
-9.07
-11.43
-13.00
-13.84
-14.14
-14.22
-14.44
-14.98
-15.78
-16.53
-16.86
-16.60
-15.72
-14.41
-12.83
-11.12
-9.37
-7.58
-5.73
-3.78
-1.73
0.37
2.49
4.64
6.79
8.76
10.33
11.31
11.63
11.41
10.85
10.27
9.92
9.90
10.13
10.31
10.24
9.84
9.16
8.35
7.48
6.71
6.23
6.34
7.22
8.76
10.51
11.80
12.06
10.97
8.61
5.47
2.24
-0.42
-2.16
-2.96
-2.95
-2.42
-1.62
-0.83
-0.31
-0.13
-0.24
-0.40
-0.39
-0.04
0.68
1.76
3.09
4.55
6.06
7.66
9.36
11.10
12.57
13.22
12.60
10.58
7.43
3.70
-0.04
-3.33
-5.92
-7.75
-8.92
-9.62
-10.03
-10.35
-10.75
-11.38
-12.26
-13.14
-13.55
-12.97
-11.10
-8.01
-4.02
0.41
4.75
8.51
11.24
12.77
13.16
12.78
11.99
11.09
10.32
9.73
9.27
8.75
7.94
6.82
5.52
4.26
3.13
1.98
0.62
-1.04
-2.89
-4.66
-6.03
-6.69
-6.58
-5.93
-5.22
-4.99
-5.46
-6.52
-7.76
-8.75
-9.14
-8.76
-7.50
-5.41
-2.73
0.14
2.72
4.69
5.92
6.52
6.71
6.69
6.65
6.63
6.60
6.44
6.13
5.71
5.32
5.01
4.73
4.31
3.61
2.62
1.45
0.29
-0.69
-1.34
-1.57
-1.49
-1.37
-1.53
-2.16
-3.20
-4.42
-5.63
-6.62
-7.19
-7.12
-6.26
-4.68
-2.70
-0.69
1.05
2.42
3.53
4.57
5.70
6.96
8.19
9.07
9.24
8.57
7.21
5.54
3.94
2.62
1.67
1.00
0.43
-0.27
-1.32
-2.76
-4.46
-6.17
-7.62
-8.65
-9.23
-9.49
-9.68
-10.07
-10.84
-11.85
-12.70
-12.88
-12.07
-10.30
-7.87
-5.14
-2.43
0.05
2.10
3.73
4.95
5.86
6.52
6.98
7.31
7.58
7.87
8.18
8.50
8.82
9.21
9.68
10.17
10.54
10.65
10.43
9.86
8.94
7.69
6.25
4.78
3.41
2.08
0.61
-1.10
-2.92
-4.51
-5.53
-5.79
-5.30
-4.23
-2.84
-1.38
-0.03
1.15
2.16
2.95
3.39
3.25
2.46
1.19
-0.25
-1.59
-2.63
-3.31
-3.65
-3.65
-3.41
-3.04
-2.68
-2.46
-2.52
-3.05
-4.20
-6.00
-8.35
-11.03
-13.79
-16.36
-18.42
-19.66
-19.90
-19.09
-17.26
-14.52
-11.02
-7.09
-3.21
0.12
2.57
4.05
4.69
4.73
4.39
3.88
3.37
2.99
2.75
2.56
2.25
1.69
0.72
-0.68
-2.47
-4.43
-6.23
-7.62
-8.46
-8.93
-9.35
-10.15
-11.72
-14.22
-17.45
-20.85
-23.58
-24.87
-24.29
-21.88
-18.06
-13.43
-8.61
-4.11
-0.25
2.89
5.36
7.27
8.57
9.24
9.37
9.24
9.18
9.36
9.62
9.72
9.38
8.52
7.22
5.67
4.17
2.97
2.17
1.64
1.03
0.04
-1.59
-3.85
-6.57
-9.32
-11.50
-12.42
-11.63
-9.06
-5.05
-0.15
5.09
10.23
14.93
18.90
22.03
24.29
25.72
26.29
25.92
24.66
22.72
20.51
18.35
16.39
14.67
13.03
11.36
9.61
7.82
6.19
4.87
3.90
3.14
2.30
1.24
-0.11
-1.75
-3.80
-6.39
-9.39
-12.34
-14.50
-15.20
-14.12
-11.40
-7.56
-3.23
0.96
4.69
7.78
10.20
11.88
12.77
12.97
12.77
12.48
12.29
12.06
11.50
10.39
8.76
6.89
5.10
3.69
2.83
2.53
2.60
2.70
2.46
1.66
0.25
-1.64
-3.73
-5.64
-7.04
-7.73
-7.88
-7.92
-8.35
-9.54
-11.47
-13.80
-15.83
-16.76
-15.91
-13.04
-8.43
-2.75
3.23
8.93
13.92
17.92
20.71
22.20
22.43
21.68
20.34
18.90
17.83
17.33
17.31
17.38
17.12
16.27
14.85
13.05
11.08
9.15
7.40
5.97
4.91
4.15
3.57
3.00
2.27
1.27
-0.09
-1.72
-3.47
-5.08
-6.40
-7.39
-8.01
-8.41
-8.85
-9.70
-11.41
-14.10
-17.53
-20.99
-23.58
-24.42
-22.92
-18.97
-13.00
-5.83
1.57
8.39
14.18
18.81
22.28
24.57
25.72
25.73
24.81
23.19
21.16
19.01
16.96
15.16
13.62
12.24
11.01
9.97
9.25
8.94
9.03
9.40
9.88
10.22
10.20
9.62
8.57
7.28
6.07
5.16
4.52
4.04
3.60
3.13
2.53
1.71
0.49
-1.30
-3.73
-6.71
-9.80
-12.35
-13.69
-13.47
-11.80
-9.09
-5.86
-2.46
0.83
3.75
6.07
7.57
8.21
8.17
7.76
7.41
7.39
7.77
8.34
8.71
8.60
7.98
6.95
5.71
4.39
3.10
1.87
0.73
-0.38
-1.57
-2.91
-4.43
-6.05
-7.66
-9.10
-10.20
-10.82
-10.85
-10.44
-9.86
-9.43
-9.43
-9.96
-10.95
-12.20
-13.31
-13.92
-13.76
-12.84
-11.35
-9.52
-7.41
-4.95
-2.04
1.29
4.84
8.26
11.16
13.19
14.20
14.28
13.67
12.60
11.16
9.38
7.35
5.36
3.72
2.61
2.00
1.75
1.67
1.66
1.70
1.90
2.37
3.10
3.83
4.11
3.45
1.59
-1.37
-5.04
-8.86
-12.18
-14.49
-15.49
-15.15
-13.73
-11.54
-8.97
-6.29
-3.81
-1.86
-0.61
-0.06
0.06
0.08
0.30
0.95
2.09
3.59
5.17
6.44
7.08
6.81
5.58
3.37
0.27
-3.45
-7.44
-11.24
-14.46
-16.80
-18.04
-18.14
-17.23
-15.77
-14.39
-13.60
-13.72
-14.65
-16.02
-17.34
-18.10
-17.93
-16.68
-14.47
-11.64
-8.47
-5.26
-2.18
0.52
2.58
3.82
4.15
3.66
2.53
1.02
-0.51
-1.69
-2.21
-2.07
-1.45
-0.72
-0.18
-0.02
-0.34
-1.14
-2.30
-3.65
-4.95
-6.00
-6.70
-7.08
-7.29
-7.70
-8.76
-10.77
-13.56
-16.46
-18.44
-18.56
-16.33
-11.92
-6.00
0.50
6.67
11.91
16.02
19.08
21.29
22.82
23.82
24.54
25.32
26.40
27.74
28.95
29.60
29.44
28.60
27.53
26.70
26.46
26.84
27.61
28.31
28.53
28.08
27.03
25.71
24.48
23.72
23.67
24.23
24.82
24.41
21.81
16.12
7.22
-4.07
-16.15
-27.02
-34.95
-38.98
-39.27
-36.98
-33.68
-30.83
-29.48
-30.23
-33.40
-39.01
-46.58
-54.93
-62.35
-66.90
-67.04
-62.16
-52.76
-40.29
-26.36
-12.41
0.71
12.56
22.97
31.86
39.31
45.41
50.16
53.27
54.14
52.15
46.90
38.57
27.99
16.43
5.19
-4.78
-12.83
-18.56
-21.61
-21.84
-19.54
-15.78
-12.24
-10.65
-12.20
-17.03
-24.34
-32.76
-40.96
-48.07
-53.75
-57.78
-59.89
-59.58
-56.30
-49.84
-40.47
-28.95
-16.51
-4.51
5.77
13.67
19.32
23.47
26.96
30.27
33.15
34.78
34.26
31.13
25.83
19.42
13.20
8.01
3.95
0.52
-2.90
-6.60
-10.27
-13.14
-14.35
-13.28
-9.95
-5.07
0.20
4.73
7.90
9.69
10.57
11.08
11.48
11.60
11.02
9.40
6.85
4.01
1.68
0.45
0.32
0.83
1.28
1.19
0.37
-1.01
-2.61
-4.11
-5.26
-5.95
-6.19
-6.17
-6.20
-6.73
-8.23
-10.90
-14.51
-18.45
-21.86
-23.85
-23.76
-21.15
-16.04
-8.83
-0.36
8.30
16.05
22.00
25.84
27.76
28.38
28.37
28.14
27.70
26.81
25.33
23.30
21.06
18.97
17.20
15.63
13.86
11.60
8.76
5.62
2.63
0.10
-1.92
-3.67
-5.37
-7.18
-9.15
-11.37
-14.05
-17.45
-21.69
-26.41
-30.67
-33.13
-32.61
-28.59
-21.44
-12.27
-2.42
6.93
14.97
21.27
25.69
28.29
29.32
29.20
28.48
27.59
26.79
25.97
24.94
23.53
21.88
20.29
19.06
18.26
17.65
16.88
15.61
13.78
11.59
9.41
7.55
6.07
4.80
3.40
1.64
-0.63
-3.45
-6.79
-10.65
-14.91
-19.21
-22.83
-24.79
-24.17
-20.51
-14.16
-6.17
2.07
9.40
15.13
19.27
22.17
24.24
25.62
26.17
25.69
24.14
21.86
19.42
17.30
15.70
14.42
13.18
11.79
10.27
8.90
7.89
7.27
6.76
6.00
4.82
3.43
2.23
1.54
1.33
1.23
0.71
-0.65
-3.06
-6.40
-10.31
-14.30
-17.73
-19.92
-20.18
-18.06
-13.56
-7.35
-0.54
5.61
10.28
13.25
14.88
15.77
16.33
16.57
16.12
14.68
12.19
9.21
6.51
4.74
4.06
4.02
3.94
3.17
1.59
-0.45
-2.31
-3.50
-4.00
-4.19
-4.64
-5.64
-7.20
-9.13
-11.40
-14.28
-18.15
-23.22
-28.98
-34.19
-37.18
-36.55
-31.95
-24.16
-14.78
-5.46
2.69
9.33
14.62
18.78
21.72
23.08
22.64
20.64
17.89
15.39
13.84
13.29
13.22
13.00
12.26
11.01
9.54
8.08
6.66
5.05
3.08
0.84
-1.39
-3.31
-4.95
-6.54
-8.41
-10.54
-12.60
-14.10
-14.86
-15.21
-15.94
-17.94
-21.68
-26.83
-32.30
-36.65
-38.62
-37.54
-33.41
-26.66
-17.98
-8.18
1.85
11.13
18.85
24.41
27.75
29.30
29.83
30.05
30.31
30.58
30.62
30.26
29.55
28.67
27.73
26.76
25.75
24.65
23.54
22.45
21.44
20.51
19.61
18.68
17.78
17.03
16.46
15.98
15.36
14.47
13.40
12.35
11.49
10.81
10.09
9.17
8.03
6.78
5.62
4.60
3.63
2.50
1.08
-0.51
-2.05
-3.31
-4.35
-5.46
-6.97
-8.92
-11.05
-12.95
-14.39
-15.46
-16.49
-17.84
-19.64
-21.71
-23.79
-25.70
-27.50
-29.27
-30.88
-31.80
-31.31
-28.81
-24.34
-18.48
-12.12
-6.07
-0.79
3.64
7.29
10.11
11.87
12.35
11.66
10.34
9.19
8.85
9.49
10.78
12.18
13.20
13.66
13.70
13.56
13.40
13.18
12.80
12.23
11.59
11.05
10.68
10.34
9.79
8.89
7.70
6.45
5.30
4.31
3.47
2.63
1.71
0.69
-0.38
-1.40
-2.30
-3.05
-3.65
-4.23
-5.06
-6.50
-8.81
-11.84
-14.93
-17.14
-17.70
-16.40
-13.73
-10.49
-7.45
-4.89
-2.68
-0.53
1.70
3.83
5.41
6.17
6.17
5.76
5.38
5.15
4.96
4.66
4.23
3.81
3.57
3.61
3.82
3.99
4.01
3.98
4.07
4.38
4.71
4.61
3.72
2.07
0.09
-1.65
-2.74
-3.16
-3.18
-3.11
-3.09
-3.16
-3.35
-3.85
-5.00
-6.95
-9.49
-11.92
-13.33
-13.10
-11.22
-8.25
-4.90
-1.82
0.72
2.69
4.14
5.13
5.62
5.67
5.46
5.28
5.32
5.57
5.75
5.60
5.09
4.42
3.85
3.53
3.31
2.99
2.41
1.62
0.92
0.62
0.84
1.37
1.81
1.84
1.41
0.76
0.12
-0.42
-1.00
-1.74
-2.65
-3.54
-4.08
-4.11
-3.73
-3.37
-3.57
-4.67
-6.63
-9.03
-11.41
-13.39
-14.72
-15.16
-14.53
-12.67
-9.69
-5.98
-2.26
0.74
2.57
3.26
3.28
3.21
3.38
3.73
3.93
3.84
3.63
3.68
4.30
5.38
6.47
6.94
6.45
5.11
3.49
2.21
1.61
1.57
1.80
2.05
2.22
2.39
2.55
2.71
2.83
2.88
2.85
2.69
2.27
1.45
0.22
-1.39
-3.19
-4.90
-6.28
-7.13
-7.49
-7.51
-7.45
-7.63
-8.36
-9.80
-11.72
-13.56
-14.58
-14.22
-12.45
-9.69
-6.60
-3.81
-1.57
0.13
1.52
2.82
4.12
5.31
6.15
6.53
6.54
6.45
6.52
6.78
7.18
7.52
7.67
7.54
7.12
6.51
5.85
5.35
5.07
5.02
5.06
5.01
4.72
4.04
3.05
1.90
0.83
-0.08
-0.88
-1.63
-2.29
-2.74
-2.93
-3.07
-3.50
-4.49
-6.05
-7.86
-9.46
-10.36
-10.28
-9.26
-7.54
-5.53
-3.55
-1.69
0.11
1.86
3.52
4.91
5.79
6.09
5.80
5.16
4.46
3.94
3.62
3.32
2.92
2.48
2.23
2.34
2.76
3.30
3.74
4.02
4.27
4.65
5.23
5.99
6.82
7.62
8.37
9.08
9.76
10.37
10.80
10.95
10.76
10.08
8.68
6.24
2.71
-1.47
-5.47
-8.32
-9.42
-8.71
-6.74
-4.31
-2.12
-0.49
0.72
1.95
3.66
5.88
8.30
10.35
11.58
11.85
11.24
10.11
8.73
7.18
5.37
3.15
0.61
-1.95
-4.13
-5.66
-6.64
-7.31
-7.90
-8.50
-9.02
-9.49
-9.95
-10.50
-11.15
-11.82
-12.31
-12.50
-12.34
-11.93
-11.55
-11.49
-11.99
-13.20
-15.11
-17.53
-19.99
-21.80
-22.32
-21.18
-18.58
-15.03
-11.15
-7.41
-3.97
-0.90
1.79
4.05
5.78
6.96
7.68
8.04
8.16
8.09
7.86
7.56
7.41
7.51
7.85
8.13
8.09
7.62
6.89
6.27
5.96
5.96
6.04
5.89
5.31
4.27
2.91
1.51
0.28
-0.69
-1.49
-2.31
-3.30
-4.58
-6.24
-8.40
-11.06
-14.23
-17.74
-21.38
-24.81
-27.40
-28.52
-27.64
-24.77
-20.45
-15.62
-11.14
-7.51
-4.84
-2.82
-1.09
0.60
2.22
3.60
4.58
5.20
5.59
5.85
5.88
5.49
4.62
3.39
2.11
1.09
0.55
0.58
1.11
2.01
3.00
3.79
4.17
4.11
3.64
2.93
2.17
1.55
1.14
0.83
0.39
-0.41
-1.79
-3.80
-6.45
-9.52
-12.60
-15.05
-16.22
-15.75
-13.63
-10.30
-6.42
-2.61
0.64
3.24
5.30
6.98
8.38
9.38
9.89
9.98
9.86
9.73
9.61
9.38
8.88
8.05
7.05
6.10
5.47
5.29
5.48
5.79
5.81
5.35
4.40
3.22
2.09
1.15
0.47
-0.02
-0.44
-1.03
-2.10
-3.94
-6.76
-10.46
-14.66
-18.71
-21.74
-23.02
-22.19
-19.45
-15.40
-10.79
-6.27
-2.24
1.10
3.70
5.61
6.95
7.85
8.45
8.92
9.38
9.94
10.52
10.96
11.05
10.76
10.18
9.48
8.78
8.11
7.49
6.95
6.52
6.16
5.79
5.32
4.63
3.66
2.35
0.79
-0.86
-2.36
-3.61
-4.62
-5.43
-6.09
-6.65
-7.22
-8.00
-9.30
-11.34
-14.17
-17.64
-21.23
-24.15
-25.56
-24.82
-21.88
-17.19
-11.56
-5.83
-0.61
3.81
7.46
10.53
13.19
15.42
17.03
17.87
17.91
17.39
16.61
15.78
15.00
14.31
13.65
13.00
12.32
11.67
11.20
11.06
11.33
11.88
12.52
12.96
13.05
12.69
11.95
11.02
10.13
9.46
8.96
8.42
7.64
6.52
5.13
3.58
2.00
0.56
-0.60
-1.40
-1.91
-2.31
-2.78
-3.47
-4.39
-5.53
-6.81
-8.07
-9.16
-9.99
-10.63
-11.26
-12.18
-13.60
-15.69
-18.47
-21.78
-25.16
-27.88
-29.18
-28.52
-25.78
-21.35
-15.90
-10.25
-5.10
-0.67
3.10
6.45
9.45
11.90
13.55
14.33
14.50
14.51
14.68
15.00
15.23
15.04
14.29
13.12
11.91
11.05
10.73
10.81
10.84
10.47
9.57
8.31
6.92
5.67
4.69
3.98
3.46
2.91
2.20
1.26
0.17
-0.94
-1.88
-2.47
-2.60
-2.29
-1.78
-1.52
-1.89
-3.13
-5.17
-7.76
-10.56
-13.17
-15.13
-16.03
-15.58
-13.87
-11.24
-8.18
-5.14
-2.42
-0.15
1.76
3.46
5.08
6.56
7.77
8.62
9.12
9.44
9.65
9.81
9.89
9.88
9.76
9.47
9.02
8.41
7.67
6.90
6.15
5.56
5.18
4.92
4.56
3.71
2.14
-0.03
-2.37
-4.32
-5.58
-6.18
-6.39
-6.55
-6.90
-7.52
-8.45
-9.71
-11.32
-13.27
-15.43
-17.38
-18.49
-18.19
-16.23
-12.88
-8.71
-4.42
-0.57
2.45
4.54
5.85
6.64
7.25
7.86
8.46
9.02
9.50
9.92
10.27
10.47
10.42
10.06
9.43
8.67
8.05
7.76
7.86
8.08
7.97
7.20
5.84
4.25
2.90
2.02
1.52
1.22
0.97
0.78
0.72
0.80
0.94
0.89
0.41
-0.65
-2.24
-4.02
-5.61
-6.74
-7.37
-7.64
-7.83
-8.32
-9.42
-11.35
-13.95
-16.73
-18.92
-19.84
-19.11
-16.73
-13.07
-8.73
-4.37
-0.48
2.73
5.35
7.48
9.20
10.39
11.01
11.12
10.95
10.78
10.78
11.01
11.33
11.58
11.53
10.99
10.02
8.84
7.76
7.01
6.55
6.31
6.12
5.86
5.37
4.53
3.35
1.97
0.64
-0.43
-1.20
-1.66
-1.90
-2.01
-2.12
-2.39
-2.84
-3.41
-3.99
-4.56
-5.17
-5.81
-6.40
-6.79
-6.99
-7.23
-7.82
-9.01
-10.80
-12.94
-14.91
-16.08
-15.92
-14.27
-11.46
-8.13
-4.92
-2.22
-0.11
1.48
2.68
3.63
4.51
5.42
6.36
7.15
7.64
7.74
7.54
7.17
6.81
6.46
6.05
5.42
4.48
3.46
2.77
2.84
3.71
4.98
5.99
6.34
6.03
5.42
4.93
4.74
4.74
4.62
4.17
3.35
2.35
1.49
0.91
0.60
0.31
-0.21
-1.11
-2.37
-3.95
-5.79
-7.74
-9.59
-11.02
-11.81
-11.84
-11.17
-10.00
-8.57
-7.08
-5.54
-3.77
-1.65
0.73
2.98
4.60
5.35
5.31
4.90
4.60
4.70
5.24
5.94
6.43
6.37
5.73
4.73
3.75
3.08
2.76
2.71
2.84
3.10
3.44
3.76
3.93
3.78
3.19
2.12
0.73
-0.69
-1.83
-2.55
-2.90
-3.07
-3.34
-3.97
-5.18
-7.09
-9.54
-12.04
-13.89
-14.53
-13.79
-11.92
-9.47
-6.97
-4.79
-3.12
-1.89
-0.92
0.05
1.20
2.56
4.15
5.85
7.48
8.80
9.54
9.67
9.31
8.76
8.31
8.07
8.05
8.10
8.09
7.88
7.41
6.75
6.01
5.35
4.72
4.02
3.17
2.17
1.14
0.13
-0.87
-1.90
-2.95
-3.94
-4.81
-5.60
-6.40
-7.46
-9.02
-11.27
-14.10
-17.09
-19.58
-20.89
-20.66
-18.85
-15.79
-11.95
-7.85
-4.02
-0.82
1.60
3.27
4.36
5.00
5.39
5.77
6.34
7.21
8.26
9.24
9.82
9.79
9.09
8.01
6.96
6.31
6.22
6.55
7.07
7.61
8.04
8.29
8.22
7.68
6.71
5.54
4.57
4.08
4.00
4.01
3.56
2.28
0.26
-2.04
-3.97
-5.14
-5.66
-5.93
-6.48
-7.69
-9.72
-12.51
-15.85
-19.24
-22.10
-23.81
-23.95
-22.40
-19.35
-15.30
-10.78
-6.36
-2.37
1.05
3.94
6.24
7.87
8.76
8.97
8.74
8.34
8.06
8.04
8.25
8.55
8.66
8.51
8.17
7.82
7.60
7.51
7.52
7.63
7.94
8.46
9.02
9.38
9.30
8.73
7.79
6.66
5.49
4.37
3.31
2.33
1.38
0.49
-0.32
-1.10
-1.95
-2.94
-4.00
-4.97
-5.70
-6.26
-6.96
-8.14
-10.03
-12.48
-15.12
-17.36
-18.59
-18.40
-16.67
-13.72
-10.12
-6.45
-3.10
-0.14
2.52
4.98
7.29
9.35
11.03
12.13
12.53
12.30
11.70
11.05
10.51
10.09
9.72
9.37
9.06
8.80
8.47
7.95
7.13
5.99
4.61
3.14
1.84
0.96
0.60
0.61
0.64
0.38
-0.25
-1.15
-2.12
-3.02
-3.77
-4.29
-4.59
-4.82
-5.24
-6.16
-7.74
-9.93
-12.41
-14.68
-16.13
-16.26
-14.88
-12.24
-8.91
-5.52
-2.58
-0.32
1.22
2.25
3.07
3.90
4.81
5.65
6.26
6.60
6.84
7.13
7.56
8.05
8.41
8.45
8.12
7.43
6.52
5.62
4.87
4.32
3.86
3.39
2.83
2.13
1.28
0.19
-1.09
-2.47
-3.70
-4.58
-5.00
-5.00
-4.76
-4.48
-4.42
-4.75
-5.60
-7.06
-9.18
-11.96
-15.15
-18.18
-20.29
-20.80
-19.50
-16.72
-13.07
-9.24
-5.63
-2.46
0.28
2.65
4.71
6.46
7.85
8.77
9.28
9.52
9.72
10.01
10.41
10.90
11.39
11.80
12.03
11.95
11.53
10.81
9.87
8.78
7.56
6.27
5.09
4.14
3.47
3.01
2.64
2.25
1.77
1.14
0.29
-0.78
-1.99
-3.21
-4.33
-5.32
-6.13
-6.73
-7.17
-7.68
-8.61
-10.26
-12.71
-15.73
-18.82
-21.35
-22.62
-22.22
-20.11
-16.67
-12.60
-8.46
-4.58
-1.08
2.03
4.60
6.55
7.85
8.68
9.27
9.77
10.30
10.86
11.36
11.63
11.55
11.08
10.33
9.41
8.39
7.37
6.40
5.55
4.87
4.36
4.06
4.01
4.29
4.79
5.24
5.44
5.31
4.96
4.55
4.11
3.55
2.69
1.49
0.01
-1.57
-3.00
-4.10
-4.84
-5.30
-5.72
-6.25
-7.05
-8.25
-10.00
-12.29
-14.85
-17.15
-18.55
-18.62
-17.30
-14.80
-11.59
-8.08
-4.64
-1.50
1.23
3.52
5.39
6.80
7.72
8.25
8.51
8.69
8.88
9.09
9.31
9.49
9.62
9.62
9.37
8.86
8.17
7.51
7.05
6.83
6.75
6.67
6.45
5.99
5.27
4.44
3.75
3.35
3.26
3.26
3.12
2.70
1.99
1.10
0.16
-0.74
-1.57
-2.39
-3.38
-4.73
-6.44
-8.25
-9.74
-10.56
-10.58
-9.87
-8.66
-7.18
-5.65
-4.27
-3.06
-1.92
-0.74
0.47
1.54
2.31
2.68
2.69
2.41
1.99
1.63
1.52
1.77
2.26
2.73
2.91
2.69
2.21
1.67
1.27
1.09
1.12
1.20
1.10
0.63
-0.22
-1.24
-2.15
-2.79
-3.25
-3.65
-4.09
-4.56
-4.98
-5.39
-5.89
-6.62
-7.70
-9.13
-10.73
-12.12
-12.80
-12.48
-11.16
-9.23
-7.10
-5.08
-3.23
-1.51
0.11
1.62
2.96
4.01
4.62
4.69
4.30
3.75
3.35
3.27
3.38
3.39
3.04
2.23
1.10
-0.10
-1.04
-1.46
-1.35
-0.98
-0.78
-1.06
-1.88
-3.03
-4.21
-5.23
-5.96
-6.39
-6.64
-6.98
-7.82
-9.47
-12.00
-15.17
-18.49
-21.39
-23.23
-23.49
-21.95
-18.82
-14.57
-9.76
-4.86
-0.17
4.02
7.43
9.85
11.20
11.62
11.38
10.82
10.35
10.28
10.70
11.36
11.79
11.59
10.61
9.05
7.21
5.40
3.88
2.79
2.13
1.73
1.31
0.67
-0.25
-1.42
-2.73
-4.19
-5.69
-7.18
-8.60
-10.07
-11.86
-14.20
-17.23
-20.78
-24.46
-27.66
-29.63
-29.75
-27.76
-23.92
-18.86
-13.29
-7.73
-2.39
2.62
7.21
11.28
14.67
17.29
19.07
20.05
20.51
20.79
21.19
21.76
22.23
22.31
21.73
20.54
18.91
17.17
15.69
14.65
14.09
13.72
13.15
12.15
10.72
9.08
7.50
6.13
5.08
4.30
3.71
3.10
2.20
0.89
-0.86
-2.84
-4.88
-6.82
-8.58
-10.18
-11.66
-13.18
-14.91
-17.03
-19.61
-22.72
-26.32
-30.19
-33.78
-36.23
-36.65
-34.52
-29.91
-23.43
-16.07
-8.76
-2.23
3.21
7.61
11.15
14.05
16.29
17.87
18.78
19.16
19.20
19.06
18.89
18.81
18.93
19.21
19.52
19.60
19.27
18.48
17.32
15.97
14.70
13.75
13.21
13.01
12.77
12.19
11.07
9.51
7.76
6.10
4.74
3.73
2.90
1.97
0.71
-0.96
-3.03
-5.37
-7.83
-10.16
-12.05
-13.31
-13.95
-14.39
-15.21
-16.98
-19.98
-24.07
-28.75
-33.23
-36.53
-37.87
-36.84
-33.59
-28.79
-23.26
-17.77
-12.83
-8.63
-5.19
-2.54
-0.78
-0.03
-0.17
-0.87
-1.66
-2.28
-2.91
-3.94
-5.82
-8.68
-12.32
-16.32
-20.25
-23.84
-27.05
-30.07
-33.22
-36.79
-40.98
-45.81
-51.24
-57.14
-63.25
-69.29
-75.04
-80.44
-85.49
-90.14
-94.19
-97.18
-98.47
-97.31
-92.95
-84.81
-72.60
-56.61
-37.66
-16.96
4.11
24.28
42.41
57.81
70.18
79.62
86.59
91.60
95.22
97.88
99.70
100.59
100.28
98.66
95.91
92.47
88.77
85.03
81.25
77.29
73.10
68.79
64.54
60.52
56.79
53.31
49.90
46.36
42.55
38.43
34.09
29.73
25.72
22.47
20.16
18.63
17.31
15.61
13.21
10.18
6.95
3.95
1.45
-0.51
-2.13
-3.56
-4.94
-6.31
-7.67
-9.15
-10.99
-13.44
-16.50
-19.82
-22.70
-24.32
-23.95
-21.27
-16.59
-10.74
-4.84
0.20
4.00
6.66
8.61
10.17
11.52
12.65
13.52
14.12
14.47
14.67
14.73
14.61
14.15
13.21
11.79
10.09
8.45
7.15
6.33
5.88
5.55
5.10
4.33
3.31
2.23
1.26
0.45
-0.36
-1.35
-2.58
-3.91
-5.16
-6.26
-7.18
-8.09
-9.16
-10.57
-12.51
-15.05
-18.06
-21.19
-23.91
-25.60
-25.74
-24.09
-20.79
-16.36
-11.51
-6.80
-2.54
1.26
4.67
7.73
10.42
12.71
14.58
15.92
16.75
17.05
16.88
16.34
15.54
14.69
13.98
13.52
13.23
12.81
12.07
11.00
9.86
8.92
8.31
7.94
7.59
7.05
6.23
5.14
3.93
2.70
1.46
0.10
-1.46
-3.20
-4.89
-6.22
-7.09
-7.57
-7.98
-8.75
-10.20
-12.49
-15.53
-18.98
-22.44
-25.43
-27.55
-28.30
-27.25
-24.21
-19.40
-13.51
-7.38
-1.71
3.12
7.10
10.33
12.90
14.85
16.11
16.73
16.81
16.59
16.31
16.06
15.74
15.12
14.10
12.78
11.45
10.38
9.69
9.29
8.97
8.52
7.79
6.87
5.89
4.99
4.19
3.34
2.35
1.32
0.47
-0.03
-0.25
-0.51
-1.13
-2.32
-3.99
-5.93
-7.82
-9.46
-10.78
-11.84
-12.76
-13.63
-14.53
-15.65
-17.25
-19.58
-22.49
-25.38
-27.28
-27.42
-25.50
-21.78
-17.03
-11.99
-7.25
-3.11
0.49
3.65
6.39
8.65
10.31
11.42
12.15
12.74
13.30
13.83
14.21
14.34
14.18
13.68
12.88
11.90
10.94
10.21
9.70
9.27
8.70
7.91
7.01
6.16
5.55
5.24
5.06
4.81
4.22
3.28
2.19
1.22
0.51
-0.05
-0.62
-1.33
-2.16
-2.97
-3.71
-4.34
-4.94
-5.60
-6.42
-7.51
-8.93
-10.67
-12.67
-14.87
-17.15
-19.30
-20.97
-21.69
-21.12
-19.16
-15.98
-12.00
-7.78
-3.81
-0.35
2.56
4.95
6.84
8.10
8.72
8.83
8.74
8.78
9.04
9.48
9.94
10.24
10.35
10.25
10.04
9.85
9.80
9.94
10.15
10.25
10.04
9.44
8.48
7.34
6.24
5.35
4.63
3.87
2.76
1.23
-0.61
-2.49
-4.18
-5.62
-6.84
-7.98
-9.11
-10.36
-11.89
-13.77
-15.95
-18.16
-20.03
-21.08
-20.92
-19.37
-16.52
-12.80
-8.80
-5.09
-1.93
0.71
3.01
5.12
7.06
8.73
10.03
10.87
11.25
11.21
10.87
10.39
9.84
9.19
8.36
7.35
6.27
5.29
4.49
4.02
3.90
4.08
4.40
4.52
4.19
3.29
1.92
0.29
-1.37
-2.88
-4.12
-5.08
-5.85
-6.58
-7.38
-8.31
-9.43
-10.88
-12.91
-15.61
-18.66
-21.40
-23.02
-22.93
-20.99
-17.54
-13.20
-8.63
-4.38
-0.70
2.38
5.00
7.29
9.34
11.18
12.79
14.16
15.21
15.82
15.91
15.45
14.50
13.17
11.57
9.96
8.57
7.58
6.98
6.54
6.09
5.57
5.07
4.63
4.21
3.69
3.04
2.37
1.78
1.27
0.59
-0.50
-2.11
-4.16
-6.36
-8.37
-9.96
-11.09
-11.90
-12.66
-13.72
-15.30
-17.53
-20.32
-23.32
-25.82
-26.96
-26.02
-22.80
-17.82
-12.05
-6.54
-1.86
1.87
4.91
7.54
9.90
11.98
13.63
14.70
15.13
15.10
14.85
14.67
14.63
14.58
14.29
13.60
12.50
11.09
9.60
8.38
7.73
7.78
8.37
9.05
9.39
9.13
8.24
6.87
5.28
3.78
2.61
1.89
1.43
0.88
-0.03
-1.38
-3.03
-4.70
-6.14
-7.15
-7.67
-7.76
-7.76
-8.12
-9.21
-11.18
-13.86
-16.83
-19.52
-21.26
-21.55
-20.23
-17.55
-14.11
-10.42
-6.87
-3.58
-0.62
1.96
4.16
6.00
7.54
8.81
9.85
10.70
11.42
12.04
12.47
12.56
12.24
11.55
10.70
9.85
9.13
8.65
8.41
8.34
8.25
7.91
7.26
6.39
5.51
4.76
4.16
3.67
3.15
2.55
1.71
0.54
-0.89
-2.38
-3.61
-4.38
-4.75
-4.98
-5.45
-6.43
-8.04
-10.10
-12.22
-13.84
-14.41
-13.64
-11.63
-8.77
-5.62
-2.65
-0.16
1.79
3.36
4.73
6.07
7.31
8.23
8.64
8.52
8.12
7.71
7.48
7.40
7.42
7.47
7.50
7.40
7.03
6.39
5.59
4.82
4.12
3.33
2.22
0.74
-1.01
-2.78
-4.35
-5.65
-6.67
-7.45
-7.99
-8.24
-8.25
-8.21
-8.48
-9.42
-11.26
-13.82
-16.48
-18.40
-18.91
-17.69
-14.86
-10.89
-6.43
-2.22
1.16
3.47
4.90
5.98
7.25
8.86
10.53
11.85
12.49
12.53
12.21
11.80
11.47
11.19
10.85
10.28
9.44
8.42
7.38
6.43
5.50
4.58
3.62
2.76
2.06
1.45
0.78
-0.09
-1.24
-2.65
-4.22
-5.92
-7.59
-9.10
-10.30
-11.17
-11.86
-12.49
-13.27
-14.37
-16.02
-18.31
-21.05
-23.69
-25.43
-25.57
-23.75
-20.08
-15.12
-9.66
-4.46
-0.02
3.60
6.62
9.30
11.67
13.58
14.89
15.61
15.99
16.23
16.45
16.68
16.80
16.69
16.13
15.01
13.42
11.61
9.96
8.66
7.73
7.05
6.44
5.74
4.86
3.81
2.83
2.18
2.07
2.40
2.87
3.08
2.76
1.85
0.39
-1.49
-3.52
-5.38
-6.73
-7.46
-7.68
-7.72
-8.04
-9.10
-11.19
-14.26
-17.74
-20.80
-22.52
-22.35
-20.38
-17.03
-12.98
-8.83
-5.03
-1.85
0.71
2.70
4.27
5.46
6.33
7.04
7.79
8.77
9.98
11.19
12.13
12.56
12.45
11.86
11.00
10.13
9.47
9.14
8.97
8.74
8.31
7.68
7.02
6.43
5.92
5.47
5.02
4.63
4.20
3.66
2.99
2.16
1.26
0.28
-0.76
-1.78
-2.68
-3.35
-3.92
-4.64
-5.74
-7.31
-9.21
-11.07
-12.51
-13.11
-12.65
-11.16
-9.01
-6.66
-4.50
-2.70
-1.19
0.05
1.05
1.81
2.30
2.58
2.73
2.79
2.89
3.08
3.35
3.58
3.56
3.23
2.67
2.08
1.62
1.40
1.43
1.65
2.06
2.56
3.02
3.21
3.04
2.52
1.76
0.90
0.03
-0.83
-1.69
-2.61
-3.62
-4.81
-6.18
-7.71
-9.40
-11.15
-12.78
-13.97
-14.31
-13.58
-11.85
-9.50
-6.91
-4.33
-1.80
0.69
3.08
5.25
7.01
8.20
8.69
8.46
7.71
6.76
5.90
5.22
4.61
3.92
3.16
2.40
1.80
1.45
1.41
1.67
2.13
2.53
2.57
2.11
1.21
0.09
-1.00
-1.95
-2.64
-3.11
-3.44
-3.81
-4.48
-5.60
-7.24
-9.35
-11.87
-14.57
-17.02
-18.65
-18.93
-17.62
-14.91
-11.21
-7.09
-3.05
0.51
3.38
5.57
7.22
8.54
9.60
10.38
10.86
11.00
10.82
10.37
9.69
8.94
8.29
7.89
7.69
7.45
6.96
6.13
5.09
4.04
3.17
2.56
2.14
1.78
1.25
0.44
-0.60
-1.65
-2.52
-3.18
-3.78
-4.48
-5.32
-6.20
-7.10
-8.12
-9.45
-11.27
-13.61
-16.29
-18.83
-20.52
-20.76
-19.22
-16.10
-11.95
-7.44
-3.13
0.59
3.54
5.72
7.23
8.32
9.13
9.72
10.09
10.27
10.33
10.31
10.14
9.73
9.00
7.97
6.75
5.56
4.67
4.33
4.55
5.09
5.49
5.44
4.87
4.00
3.16
2.55
2.25
2.13
2.00
1.66
0.97
0.03
-1.06
-2.07
-2.98
-3.77
-4.46
-5.13
-5.85
-6.82
-8.18
-10.02
-12.24
-14.53
-16.47
-17.41
-16.79
-14.32
-10.20
-5.22
-0.37
3.57
6.30
8.00
9.04
9.72
10.12
10.13
9.71
8.98
8.27
7.83
7.58
7.18
6.31
4.96
3.48
2.39
1.97
2.16
2.65
3.06
3.25
3.25
3.19
3.20
3.20
3.13
2.95
2.76
2.67
2.65
2.47
1.97
1.21
0.40
-0.17
-0.45
-0.67
-1.18
-2.25
-3.91
-5.86
-7.62
-8.68
-8.75
-7.83
-6.19
-4.29
-2.59
-1.40
-0.83
-0.60
-0.26
0.52
1.73
2.94
3.69
3.78
3.39
2.98
2.81
2.91
3.04
2.92
2.45
1.73
1.08
0.81
1.05
1.67
2.41
2.92
3.01
2.57
1.61
0.36
-0.79
-1.52
-1.74
-1.67
-1.63
-1.82
-2.26
-2.79
-3.34
-3.97
-4.84
-6.07
-7.57
-9.07
-10.10
-10.27
-9.46
-7.85
-5.88
-3.94
-2.20
-0.61
0.93
2.52
4.05
5.24
5.79
5.52
4.62
3.62
3.11
3.37
4.22
5.15
5.63
5.39
4.57
3.48
2.51
1.92
1.76
1.94
2.22
2.37
2.27
1.90
1.30
0.64
0.07
-0.35
-0.69
-1.13
-1.70
-2.29
-2.65
-2.71
-2.72
-3.11
-4.28
-6.28
-8.80
-11.25
-12.98
-13.50
-12.75
-10.95
-8.58
-6.13
-3.89
-2.00
-0.53
0.53
1.19
1.54
1.75
1.95
2.37
3.13
4.21
5.42
6.37
6.86
6.90
6.72
6.57
6.54
6.60
6.63
6.59
6.46
6.20
5.85
5.34
4.63
3.66
2.40
0.92
-0.59
-1.90
-2.87
-3.47
-3.84
-4.15
-4.58
-5.28
-6.23
-7.36
-8.66
-10.18
-12.07
-14.19
-16.10
-17.12
-16.72
-14.85
-11.89
-8.56
-5.47
-2.94
-1.01
0.56
2.04
3.57
5.11
6.50
7.56
8.27
8.70
8.93
9.06
9.14
9.11
8.95
8.56
8.07
7.69
7.66
8.04
8.58
8.97
8.94
8.45
7.68
6.80
5.97
5.26
4.61
3.91
3.04
1.91
0.58
-0.78
-1.98
-2.82
-3.25
-3.35
-3.36
-3.57
-4.15
-5.10
-6.34
-7.80
-9.56
-11.55
-13.54
-15.12
-15.87
-15.62
-14.43
-12.49
-10.08
-7.39
-4.55
-1.72
0.96
3.28
5.10
6.33
7.01
7.31
7.38
7.28
7.05
6.75
6.42
6.11
5.75
5.37
5.05
4.88
4.93
5.02
4.98
4.70
4.19
3.65
3.22
3.04
3.11
3.28
3.37
3.18
2.62
1.79
0.84
-0.14
-1.16
-2.27
-3.48
-4.60
-5.43
-5.71
-5.33
-4.49
-3.62
-3.34
-4.00
-5.56
-7.51
-9.20
-10.15
-10.12
-9.22
-7.72
-6.01
-4.44
-3.16
-2.12
-1.13
-0.03
1.24
2.63
4.04
5.36
6.51
7.43
8.02
8.15
7.71
6.69
5.36
4.20
3.66
3.96
4.80
5.70
6.22
6.17
5.70
5.10
4.66
4.50
4.59
4.73
4.62
4.15
3.34
2.39
1.53
0.86
0.37
-0.01
-0.35
-0.73
-1.12
-1.45
-1.67
-1.80
-1.98
-2.35
-2.96
-3.79
-4.78
-5.87
-6.93
-7.71
-7.96
-7.56
-6.69
-5.65
-4.69
-3.93
-3.29
-2.70
-2.09
-1.45
-0.88
-0.43
-0.17
-0.01
0.17
0.47
0.83
1.09
1.17
1.04
0.88
0.83
0.96
1.28
1.70
2.09
2.19
1.88
1.21
0.49
0.05
0.04
0.35
0.67
0.72
0.38
-0.35
-1.28
-2.24
-3.14
-3.92
-4.54
-4.87
-4.73
-4.09
-3.21
-2.58
-2.63
-3.43
-4.67
-5.81
-6.53
-6.73
-6.56
-6.21
-5.79
-5.25
-4.47
-3.40
-2.11
-0.84
0.08
0.52
0.46
0.13
-0.31
-0.68
-0.82
-0.61
0.01
0.92
1.84
2.49
2.74
2.67
2.42
2.08
1.79
1.61
1.65
1.93
2.39
2.98
3.56
4.03
4.20
4.02
3.52
2.84
2.14
1.49
0.98
0.67
0.55
0.49
0.24
-0.38
-1.41
-2.65
-3.84
-4.80
-5.47
-5.82
-5.84
-5.52
-4.85
-3.90
-2.68
-1.24
0.36
2.05
3.66
4.95
5.63
5.47
4.61
3.52
2.79
2.78
3.39
4.20
4.78
4.89
4.59
4.18
3.85
3.65
3.39
2.91
2.24
1.55
1.08
0.87
0.73
0.44
-0.13
-0.91
-1.67
-2.28
-2.75
-3.24
-3.95
-4.95
-6.19
-7.46
-8.44
-8.92
-8.83
-8.25
-7.37
-6.47
-5.81
-5.58
-5.64
-5.65
-5.15
-3.87
-1.94
0.23
2.13
3.36
3.82
3.66
3.21
2.78
2.57
2.65
2.95
3.31
3.53
3.38
2.73
1.68
0.63
-0.01
0.06
0.76
1.77
2.76
3.52
4.01
4.21
3.92
2.93
1.00
-1.74
-4.73
-7.14
-8.27
-7.96
-6.65
-5.14
-4.10
-3.73
-3.78
-3.79
-3.42
-2.60
-1.54
-0.52
0.24
0.71
1.00
1.17
1.32
1.49
1.82
2.34
3.03
3.67
4.04
4.05
3.76
3.35
2.94
2.56
2.23
1.90
1.60
1.37
1.21
1.03
0.62
-0.20
-1.45
-2.98
-4.49
-5.83
-6.94
-7.79
-8.26
-8.21
-7.51
-6.28
-4.75
-3.21
-1.81
-0.55
0.64
1.88
3.18
4.45
5.49
6.10
6.18
5.82
5.20
4.40
3.56
2.73
2.00
1.45
1.09
0.94
0.89
0.81
0.55
0.00
-0.76
-1.51
-2.07
-2.38
-2.63
-2.97
-3.47
-4.03
-4.55
-5.07
-5.80
-6.89
-8.26
-9.61
-10.43
-10.29
-9.01
-6.80
-4.11
-1.38
1.05
3.04
4.54
5.57
6.29
6.95
7.81
8.93
10.04
10.81
10.96
10.51
9.71
8.90
8.30
7.95
7.70
7.39
6.91
6.40
6.08
6.11
6.51
7.05
7.45
7.55
7.31
6.72
5.82
4.63
3.17
1.49
-0.26
-1.76
-2.76
-3.16
-3.20
-3.38
-4.04
-5.21
-6.43
-7.19
-7.14
-6.44
-5.53
-4.99
-5.15
-6.05
-7.53
-9.40
-11.51
-13.66
-15.52
-16.55
-16.29
-14.59
-11.78
-8.50
-5.33
-2.61
-0.32
1.63
3.28
4.55
5.27
5.45
5.26
5.06
5.12
5.44
5.79
5.93
5.77
5.45
5.20
5.22
5.58
6.24
7.15
8.14
9.00
9.42
9.15
8.06
6.37
4.64
3.56
3.56
4.54
5.84
6.68
6.48
5.23
3.39
1.60
0.33
-0.28
-0.41
-0.41
-0.54
-0.95
-1.64
-2.58
-3.71
-4.91
-5.95
-6.64
-6.87
-6.79
-6.66
-6.70
-7.04
-7.67
-8.56
-9.59
-10.55
-11.16
-11.10
-10.15
-8.27
-5.77
-3.19
-1.12
0.16
0.72
0.95
1.20
1.61
2.12
2.59
3.00
3.40
3.88
4.37
4.65
4.39
3.50
2.22
1.09
0.65
1.13
2.24
3.41
4.16
4.33
4.13
3.95
4.02
4.38
4.73
4.84
4.58
4.06
3.51
3.09
2.81
2.57
2.33
2.01
1.59
0.96
0.10
-0.84
-1.62
-1.95
-1.78
-1.22
-0.61
-0.30
-0.56
-1.43
-2.79
-4.42
-6.11
-7.70
-8.94
-9.52
-9.20
-7.96
-6.06
-3.87
-1.79
-0.01
1.38
2.32
2.85
2.97
2.76
2.37
1.95
1.70
1.81
2.34
3.19
4.18
5.00
5.31
4.92
3.77
2.19
0.69
-0.25
-0.40
-0.00
0.58
1.01
1.19
1.19
1.11
1.01
0.86
0.63
0.36
0.09
-0.09
-0.15
-0.18
-0.38
-0.97
-2.07
-3.64
-5.43
-7.16
-8.53
-9.35
-9.60
-9.41
-8.97
-8.35
-7.43
-6.13
-4.42
-2.55
-0.75
0.75
1.91
2.85
3.56
4.01
4.16
4.04
3.77
3.53
3.41
3.34
3.18
2.81
2.28
1.80
1.57
1.58
1.62
1.43
0.97
0.37
-0.13
-0.44
-0.50
-0.41
-0.21
0.12
0.50
0.75
0.68
0.12
-0.98
-2.45
-3.98
-5.17
-5.77
-5.71
-5.04
-3.90
-2.51
-1.09
0.09
0.94
1.56
2.18
3.03
4.08
5.16
5.99
6.36
6.18
5.48
4.44
3.35
2.50
2.09
2.13
2.41
2.74
2.94
2.92
2.75
2.47
2.04
1.28
0.02
-1.62
-3.21
-4.20
-4.26
-3.54
-2.62
-2.13
-2.50
-3.76
-5.56
-7.41
-8.84
-9.55
-9.50
-8.79
-7.61
-6.15
-4.63
-3.19
-1.83
-0.45
0.99
2.43
3.65
4.46
4.80
4.81
4.74
4.83
5.13
5.62
6.16
6.58
6.78
6.74
6.45
5.91
5.13
4.26
3.51
3.09
2.97
2.92
2.67
2.07
1.18
0.19
-0.69
-1.45
-2.13
-2.85
-3.71
-4.68
-5.74
-6.88
-8.17
-9.73
-11.54
-13.40
-15.00
-16.09
-16.55
-16.36
-15.50
-13.95
-11.71
-8.95
-5.99
-3.14
-0.71
1.15
2.42
3.20
3.65
3.95
4.31
4.97
6.15
7.77
9.55
11.00
11.76
11.83
11.52
11.28
11.30
11.56
11.80
11.84
11.67
11.46
11.31
11.16
10.63
9.37
7.32
4.88
2.69
1.35
0.93
1.14
1.50
1.64
1.42
0.93
0.25
-0.57
-1.58
-2.85
-4.30
-5.84
-7.24
-8.39
-9.32
-10.09
-10.87
-11.81
-13.06
-14.71
-16.58
-18.20
-19.03
-18.54
-16.72
-13.81
-10.30
-6.68
-3.27
-0.28
2.22
4.21
5.70
6.63
7.03
7.06
6.97
7.07
7.48
8.26
9.22
10.01
10.30
9.87
8.88
7.76
7.01
6.89
7.26
7.77
8.06
8.01
7.70
7.19
6.54
5.79
4.97
4.18
3.48
2.91
2.48
2.07
1.59
1.05
0.49
-0.08
-0.67
-1.43
-2.29
-3.04
-3.41
-3.32
-3.01
-2.98
-3.64
-5.15
-7.32
-9.74
-11.97
-13.68
-14.71
-14.93
-14.21
-12.47
-9.84
-6.75
-3.86
-1.64
-0.22
0.66
1.46
2.45
3.58
4.56
5.02
4.92
4.51
4.26
4.50
5.20
6.01
6.49
6.47
6.08
5.59
5.21
4.99
4.88
4.82
4.89
5.19
5.78
6.47
6.83
6.45
5.20
3.36
1.47
-0.02
-0.93
-1.41
-1.68
-1.93
-2.23
-2.65
-3.34
-4.55
-6.46
-8.99
-11.59
-13.43
-13.79
-12.49
-9.90
-6.84
-3.97
-1.67
0.08
1.47
2.59
3.40
3.77
3.70
3.41
3.30
3.62
4.32
5.02
5.37
5.23
4.75
4.21
3.80
3.57
3.52
3.64
3.99
4.52
5.03
5.21
4.82
3.85
2.61
1.56
0.99
0.84
0.68
0.14
-0.94
-2.38
-3.93
-5.46
-7.05
-8.79
-10.60
-12.12
-12.93
-12.78
-11.73
-10.20
-8.56
-6.89
-4.98
-2.55
0.43
3.53
6.14
7.78
8.32
8.09
7.56
7.03
6.57
6.03
5.25
4.31
3.47
3.00
2.92
3.05
3.10
2.96
2.64
2.29
1.94
1.49
0.80
-0.22
-1.53
-3.00
-4.42
-5.69
-6.88
-8.10
-9.51
-11.10
-12.87
-14.76
-16.70
-18.43
-19.50
-19.44
-17.93
-15.10
-11.44
-7.62
-4.17
-1.36
0.83
2.70
4.47
6.25
7.91
9.21
10.00
10.33
10.47
10.61
10.89
11.24
11.45
11.31
10.75
9.90
9.09
8.55
8.32
8.10
7.61
6.67
5.30
3.68
1.89
0.01
-1.93
-3.89
-5.70
-7.31
-8.65
-9.80
-10.91
-12.31
-14.24
-16.81
-19.84
-22.83
-25.08
-25.94
-24.90
-21.89
-17.26
-11.74
-6.08
-0.84
3.71
7.55
10.69
13.17
14.97
16.10
16.62
16.64
16.32
15.91
15.59
15.37
15.13
14.69
13.96
13.06
12.22
11.64
11.49
11.79
12.39
13.00
13.21
12.76
11.55
9.77
7.77
5.91
4.46
3.49
2.83
2.12
1.02
-0.63
-2.71
-4.90
-6.95
-8.74
-10.31
-11.82
-13.45
-15.37
-17.65
-20.33
-23.41
-26.83
-30.42
-33.63
-35.71
-35.82
-33.41
-28.61
-22.00
-14.50
-7.05
-0.28
5.48
10.25
14.19
17.44
20.00
21.79
22.79
23.11
23.02
22.75
22.44
22.06
21.57
20.94
20.12
19.14
18.06
16.96
15.93
15.00
14.29
13.91
13.82
13.78
13.46
12.71
11.59
10.36
9.23
8.11
6.78
5.06
2.99
0.87
-0.94
-2.24
-3.08
-3.75
-4.67
-6.12
-8.19
-10.76
-13.47
-16.01
-17.99
-19.21
-19.76
-20.13
-21.10
-23.27
-26.71
-30.84
-34.53
-36.63
-36.35
-33.46
-28.35
-21.76
-14.54
-7.49
-1.19
4.04
8.12
11.22
13.70
15.86
17.81
19.36
20.26
20.43
20.01
19.34
18.73
18.31
18.06
17.78
17.31
16.48
15.41
14.32
13.44
12.87
12.45
11.98
11.21
10.07
8.54
6.77
4.99
3.43
2.29
1.52
0.94
0.31
-0.58
-1.78
-3.27
-4.95
-6.64
-8.23
-9.61
-10.75
-11.56
-11.93
-11.87
-11.58
-11.62
-12.54
-14.73
-18.24
-22.70
-27.46
-31.65
-34.39
-35.03
-33.30
-29.39
-23.86
-17.45
-10.88
-4.70
0.66
5.08
8.58
11.31
13.36
14.77
15.61
15.97
16.04
15.94
15.77
15.59
15.40
15.22
15.01
14.77
14.59
14.57
14.80
15.24
15.77
16.19
16.28
15.90
14.93
13.50
11.92
10.53
9.60
9.04
8.61
8.01
7.12
5.98
4.69
3.44
2.33
1.44
0.75
0.11
-0.54
-1.29
-2.20
-3.41
-5.07
-7.15
-9.48
-11.69
-13.45
-14.52
-14.71
-14.04
-12.53
-10.39
-7.88
-5.12
-2.29
0.52
3.11
5.25
6.78
7.69
8.09
8.15
8.03
7.93
7.99
8.29
8.76
9.22
9.50
9.35
8.68
7.47
5.96
4.52
3.51
3.11
3.12
3.20
2.99
2.32
1.28
0.05
-1.10
-2.01
-2.62
-2.97
-3.20
-3.41
-3.66
-4.05
-4.77
-6.00
-7.81
-9.98
-12.02
-13.38
-13.61
-12.57
-10.44
-7.62
-4.59
-1.67
1.01
3.46
5.66
7.46
8.69
9.22
9.08
8.46
7.53
6.52
5.58
4.80
4.14
3.46
2.68
1.82
1.08
0.64
0.58
0.87
1.31
1.75
2.04
2.11
2.01
1.83
1.68
1.55
1.33
0.98
0.41
-0.37
-1.45
-2.97
-4.94
-7.28
-9.69
-11.82
-13.31
-13.83
-13.24
-11.60
-9.27
-6.70
-4.21
-1.98
0.07
1.99
3.77
5.34
6.57
7.40
7.80
7.84
7.71
7.60
7.71
8.05
8.44
8.76
8.84
8.64
8.15
7.44
6.68
6.00
5.55
5.25
4.91
4.33
3.32
1.89
0.12
-1.81
-3.62
-5.07
-5.97
-6.40
-6.66
-7.15
-8.15
-9.84
-12.15
-14.79
-17.26
-18.98
-19.42
-18.40
-16.08
-12.82
-9.10
-5.25
-1.63
1.53
4.16
6.32
8.06
9.43
10.43
11.12
11.58
11.94
12.22
12.30
12.15
11.70
10.98
10.05
8.95
7.82
6.80
6.00
5.37
4.80
4.26
3.72
3.21
2.58
1.60
0.12
-1.79
-3.82
-5.61
-6.89
-7.57
-7.84
-8.03
-8.57
-9.84
-11.96
-14.83
-18.09
-21.31
-23.94
-25.37
-25.13
-22.89
-18.89
-13.66
-8.00
-2.65
1.89
5.43
8.12
10.30
12.24
13.96
15.26
15.92
15.95
15.54
15.04
14.71
14.56
14.49
14.32
14.04
13.77
13.64
13.66
13.63
13.25
12.33
11.05
9.74
8.77
8.23
7.91
7.58
7.03
6.28
5.47
4.66
3.81
2.63
0.86
-1.51
-4.19
-6.72
-8.71
-10.08
-10.88
-11.25
-11.36
-11.37
-11.53
-12.19
-13.63
-15.93
-18.80
-21.68
-23.83
-24.63
-23.77
-21.35
-17.67
-13.22
-8.49
-3.98
-0.14
2.80
4.93
6.58
8.06
9.55
10.92
12.02
12.72
13.06
13.25
13.38
13.46
13.29
12.73
11.84
10.95
10.46
10.44
10.70
10.83
10.62
10.14
9.76
9.74
10.02
10.21
9.77
8.47
6.57
4.68
3.39
2.80
2.54
1.97
0.80
-0.82
-2.34
-3.21
-3.37
-3.24
-3.50
-4.61
-6.42
-8.21
-9.26
-9.34
-8.91
-8.91
-9.99
-12.20
-14.85
-16.95
-17.72
-16.96
-15.07
-12.65
-10.13
-7.64
-5.07
-2.49
-0.10
1.73
2.86
3.40
3.69
4.00
4.41
4.79
4.88
4.62
4.15
3.77
3.76
4.08
4.45
4.61
4.46
4.17
4.00
4.07
4.30
4.52
4.53
4.31
4.06
3.96
4.06
4.12
3.81
2.99
1.85
0.78
0.13
-0.06
-0.04
-0.07
-0.33
-0.73
-1.03
-1.07
-0.83
-0.53
-0.41
-0.61
-1.23
-2.27
-3.77
-5.76
-8.10
-10.28
-11.69
-11.81
-10.52
-8.28
-5.75
-3.62
-2.20
-1.33
-0.61
0.29
1.37
2.39
2.94
2.93
2.51
2.00
1.66
1.50
1.30
0.79
-0.10
-1.16
-1.99
-2.26
-1.92
-1.18
-0.37
0.30
0.76
1.04
1.09
0.90
0.49
0.01
-0.31
-0.32
-0.04
0.30
0.35
-0.09
-0.92
-1.83
-2.53
-2.98
-3.50
-4.41
-5.76
-7.23
-8.31
-8.54
-7.89
-6.66
-5.35
-4.29
-3.40
-2.35
-0.73
1.46
3.88
5.94
7.20
7.59
7.33
6.78
6.18
5.61
4.96
4.16
3.23
2.32
1.62
1.13
0.74
0.32
-0.11
-0.48
-0.70
-0.82
-0.96
-1.17
-1.46
-1.76
-2.06
-2.36
-2.71
-3.12
-3.51
-3.71
-3.59
-3.24
-2.97
-3.19
-4.01
-5.20
-6.19
-6.44
-5.79
-4.48
-2.90
-1.41
-0.12
1.04
2.14
3.08
3.58
3.40
2.64
1.75
1.29
1.61
2.57
3.66
4.31
4.25
3.62
2.85
2.36
2.23
2.23
2.00
1.36
0.44
-0.42
-0.95
-1.09
-1.03
-1.04
-1.18
-1.38
-1.42
-1.26
-1.04
-1.24
-2.28
-4.31
-6.98
-9.59
-11.47
-12.25
-11.96
-10.96
-9.67
-8.41
-7.29
-6.25
-5.14
-3.88
-2.41
-0.74
1.11
2.99
4.64
5.73
6.11
5.88
5.35
4.85
4.53
4.33
4.22
4.16
4.23
4.52
4.93
5.22
5.08
4.33
3.11
1.73
0.54
-0.35
-1.14
-2.04
-3.06
-3.99
-4.53
-4.53
-4.17
-3.79
-3.80
-4.40
-5.50
-6.87
-8.19
-9.26
-9.89
-9.97
-9.31
-7.85
-5.71
-3.28
-0.94
1.00
2.41
3.34
3.87
4.14
4.34
4.61
5.02
5.52
5.97
6.26
6.34
6.25
6.13
6.10
6.10
5.98
5.54
4.81
4.06
3.66
3.76
4.22
4.61
4.62
4.14
3.42
2.86
2.65
2.74
2.74
2.24
1.08
-0.56
-2.21
-3.46
-4.19
-4.56
-4.77
-4.95
-5.09
-5.12
-5.11
-5.34
-6.30
-8.27
-11.12
-14.27
-16.93
-18.49
-18.76
-17.90
-16.16
-13.79
-10.94
-7.78
-4.59
-1.69
0.63
2.35
3.73
5.07
6.58
8.07
9.16
9.57
9.33
8.86
8.62
8.88
9.45
9.86
9.61
8.56
7.08
5.80
5.27
5.51
6.16
6.58
6.40
5.67
4.74
3.98
3.49
3.01
2.14
0.66
-1.17
-2.78
-3.57
-3.35
-2.47
-1.55
-1.11
-1.31
-2.00
-2.85
-3.53
-3.85
-3.81
-3.50
-3.11
-2.87
-2.93
-3.44
-4.52
-6.16
-8.19
-10.31
-12.16
-13.49
-14.17
-14.10
-13.28
-11.73
-9.59
-7.00
-4.14
-1.19
1.66
4.17
6.21
7.69
8.62
9.00
8.82
8.17
7.27
6.42
5.87
5.71
5.88
6.23
6.64
7.08
7.48
7.82
8.01
7.93
7.44
6.50
5.29
4.09
3.20
2.68
2.39
2.17
1.82
1.31
0.63
-0.27
-1.31
-2.41
-3.43
-4.27
-4.84
-5.07
-4.99
-4.59
-4.00
-3.38
-2.86
-2.59
-2.71
-3.36
-4.60
-6.26
-7.98
-9.34
-10.13
-10.39
-10.25
-9.82
-9.07
-7.94
-6.47
-4.74
-2.94
-1.24
0.26
1.52
2.63
3.58
4.36
4.82
4.89
4.72
4.61
4.88
5.60
6.56
7.51
8.22
8.64
8.77
8.60
8.11
7.27
6.16
4.90
3.63
2.52
1.68
1.15
0.84
0.70
0.60
0.47
0.15
-0.46
-1.27
-1.96
-2.19
-1.87
-1.30
-1.04
-1.56
-3.05
-5.14
-7.26
-8.74
-9.24
-8.75
-7.54
-6.01
-4.39
-2.69
-0.81
1.22
3.16
4.74
5.69
5.98
5.73
5.17
4.50
3.78
3.01
2.16
1.38
0.88
0.86
1.26
1.75
1.97
1.77
1.33
1.00
0.95
1.17
1.46
1.50
1.16
0.44
-0.50
-1.43
-2.18
-2.70
-3.05
-3.26
-3.37
-3.41
-3.53
-3.88
-4.55
-5.47
-6.40
-7.03
-7.07
-6.34
-4.90
-2.99
-1.09
0.50
1.65
2.43
2.97
3.28
3.38
3.29
3.13
3.06
3.12
3.23
3.22
2.92
2.21
1.17
0.02
-0.96
-1.54
-1.69
-1.56
-1.28
-0.96
-0.61
-0.26
0.01
0.09
-0.01
-0.25
-0.55
-0.83
-1.03
-1.17
-1.40
-1.92
-2.85
-4.21
-5.87
-7.67
-9.48
-11.16
-12.51
-13.29
-13.34
-12.65
-11.30
-9.44
-7.24
-4.90
-2.66
-0.71
0.87
2.14
3.18
4.08
4.89
5.57
6.05
6.16
5.80
5.08
4.20
3.44
2.91
2.63
2.52
2.52
2.59
2.61
2.54
2.40
2.24
2.19
2.27
2.42
2.57
2.63
2.50
2.05
1.15
-0.19
-1.82
-3.50
-4.98
-6.13
-6.86
-7.26
-7.57
-8.25
-9.67
-12.02
-15.02
-18.03
-20.37
-21.48
-21.23
-19.75
-17.31
-14.20
-10.66
-6.96
-3.39
-0.23
2.30
4.17
5.56
6.79
8.13
9.61
11.00
11.99
12.44
12.47
12.34
12.29
12.41
12.62
12.83
12.90
12.76
12.37
11.77
10.98
10.08
9.02
7.81
6.53
5.31
4.30
3.46
2.76
2.10
1.45
0.81
0.13
-0.65
-1.54
-2.51
-3.49
-4.47
-5.41
-6.27
-7.19
-8.34
-9.93
-11.92
-14.02
-15.65
-16.24
-15.53
-13.59
-10.80
-7.61
-4.45
-1.55
1.10
3.51
5.69
7.45
8.57
9.00
8.84
8.38
7.86
7.36
6.89
6.46
6.06
5.73
5.48
5.36
5.39
5.64
6.01
6.38
6.58
6.44
5.86
4.87
3.69
2.64
1.97
1.76
1.70
1.48
0.88
-0.07
-1.18
-2.32
-3.40
-4.46
-5.62
-7.05
-8.91
-11.20
-13.74
-16.15
-17.97
-18.77
-18.21
-16.19
-12.84
-8.52
-3.75
0.95
5.07
8.24
10.27
11.25
11.56
11.65
11.86
12.17
12.42
12.42
12.05
11.34
10.34
9.18
7.99
6.89
6.06
5.51
5.28
5.31
5.45
5.46
5.15
4.44
3.46
2.38
1.36
0.36
-0.74
-2.06
-3.67
-5.53
-7.52
-9.48
-11.23
-12.66
-13.82
-14.79
-15.80
-17.13
-19.11
-21.91
-25.31
-28.63
-30.97
-31.47
-29.84
-26.16
-20.94
-14.81
-8.39
-2.19
3.41
8.13
11.85
14.55
16.35
17.46
18.13
18.58
18.92
19.16
19.30
19.30
19.19
18.93
18.59
18.29
18.10
18.02
17.83
17.36
16.55
15.58
14.69
14.05
13.73
13.60
13.44
13.03
12.15
10.80
9.05
7.11
5.18
3.36
1.71
0.19
-1.25
-2.75
-4.44
-6.41
-8.59
-10.86
-13.05
-15.00
-16.67
-18.12
-19.61
-21.50
-24.03
-27.12
-30.38
-33.19
-34.98
-35.23
-33.63
-30.15
-24.99
-18.60
-11.53
-4.36
2.39
8.27
12.87
16.03
17.84
18.71
19.10
19.43
19.91
20.45
20.84
20.73
19.94
18.58
16.94
15.49
14.45
13.89
13.67
13.63
13.68
13.76
13.91
14.07
14.08
13.75
12.84
11.40
9.69
8.09
6.87
5.93
5.03
3.94
2.64
1.35
0.33
-0.32
-0.71
-1.18
-2.02
-3.40
-5.20
-7.06
-8.56
-9.42
-9.62
-9.47
-9.44
-10.08
-11.77
-14.43
-17.50
-20.15
-21.50
-21.13
-19.03
-15.55
-11.32
-6.90
-2.77
0.85
3.88
6.34
8.24
9.53
10.27
10.62
10.84
11.11
11.43
11.69
11.74
11.52
11.06
10.49
9.96
9.50
9.06
8.48
7.76
6.96
6.29
5.81
5.48
5.16
4.81
4.44
4.16
3.88
3.52
2.95
2.08
1.04
-0.01
-0.85
-1.31
-1.48
-1.65
-2.31
-3.74
-6.00
-8.74
-11.47
-13.66
-14.87
-14.89
-13.75
-11.76
-9.28
-6.69
-4.23
-1.91
0.29
2.50
4.68
6.59
7.90
8.23
7.56
6.30
5.04
4.29
4.15
4.37
4.57
4.50
4.13
3.58
3.14
3.02
3.26
3.71
4.08
4.13
3.72
2.88
1.67
0.22
-1.37
-2.96
-4.47
-5.87
-7.19
-8.43
-9.65
-11.03
-12.85
-15.34
-18.37
-21.50
-23.99
-25.17
-24.65
-22.41
-18.78
-14.32
-9.65
-5.31
-1.51
1.68
4.36
6.57
8.30
9.61
10.57
11.38
12.13
12.85
13.52
14.05
14.37
14.27
13.60
12.36
10.70
8.97
7.51
6.57
6.23
6.36
6.67
6.86
6.69
6.13
5.35
4.52
3.61
2.43
0.84
-1.21
-3.52
-5.82
-7.83
-9.37
-10.40
-10.97
-11.40
-12.16
-13.70
-16.29
-19.84
-23.86
-27.52
-29.87
-30.11
-27.93
-23.61
-17.80
-11.33
-4.94
0.84
5.62
9.27
11.87
13.62
14.76
15.44
15.77
15.81
15.69
15.55
15.42
15.27
15.03
14.62
14.06
13.46
12.98
12.71
12.61
12.41
11.97
11.26
10.36
9.41
8.33
7.08
5.66
4.20
2.98
2.16
1.83
1.85
1.90
1.69
0.95
-0.30
-1.86
-3.46
-4.85
-5.98
-6.95
-7.91
-9.07
-10.66
-12.70
-15.11
-17.57
-19.67
-21.01
-21.20
-20.01
-17.43
-13.72
-9.46
-5.18
-1.27
2.14
5.11
7.64
9.76
11.34
12.33
12.77
12.79
12.67
12.70
13.05
13.65
14.27
14.61
14.44
13.80
12.82
11.71
10.70
9.88
9.24
8.61
7.80
6.65
5.17
3.49
1.76
0.19
-1.10
-2.13
-3.00
-3.94
-5.00
-5.98
-6.59
-6.57
-6.05
-5.37
-5.02
-5.30
-6.17
-7.38
-8.45
-9.01
-8.80
-7.84
-6.32
-4.41
-2.25
0.08
2.43
4.55
6.26
7.38
7.89
7.80
7.16
6.19
5.13
4.21
3.55
3.12
2.85
2.64
2.47
2.25
1.90
1.42
0.88
0.44
0.17
0.07
0.05
-0.07
-0.43
-1.07
-1.88
-2.61
-3.07
-3.25
-3.32
-3.51
-3.94
-4.65
-5.63
-6.95
-8.65
-10.63
-12.60
-14.07
-14.63
-14.02
-12.29
-9.70
-6.66
-3.58
-0.66
2.03
4.44
6.51
8.10
9.19
9.78
9.95
9.77
9.23
8.44
7.50
6.66
6.04
5.68
5.55
5.50
5.39
5.04
4.37
3.44
2.49
1.82
1.60
1.73
2.02
2.16
1.97
1.34
0.24
-1.23
-2.97
-4.81
-6.64
-8.28
-9.50
-10.18
-10.35
-10.48
-11.21
-12.96
-15.66
-18.73
-21.36
-22.83
-22.78
-21.22
-18.43
-14.87
-10.99
-7.14
-3.54
-0.21
2.86
5.58
7.88
9.56
10.57
10.96
10.94
10.94
11.24
11.94
12.73
13.16
12.91
12.00
10.80
9.71
9.01
8.78
8.86
9.07
9.17
8.95
8.34
7.40
6.26
5.06
3.82
2.54
1.22
-0.12
-1.38
-2.57
-3.65
-4.60
-5.41
-6.04
-6.48
-6.70
-6.74
-6.83
-7.40
-8.90
-11.50
-14.92
-18.35
-20.87
-21.72
-20.57
-17.65
-13.57
-9.08
-4.88
-1.30
1.61
3.98
5.94
7.51
8.72
9.66
10.43
11.07
11.51
11.64
11.39
10.76
9.73
8.37
6.85
5.48
4.57
4.25
4.37
4.69
4.92
4.92
4.66
4.20
3.70
3.22
2.81
2.37
1.76
1.01
0.28
-0.25
-0.52
-0.71
-1.10
-1.81
-2.85
-4.09
-5.39
-6.63
-7.78
-8.86
-9.95
-11.05
-12.02
-12.56
-12.37
-11.33
-9.56
-7.29
-4.83
-2.34
0.02
2.23
4.28
6.09
7.49
8.24
8.28
7.76
7.06
6.55
6.42
6.62
6.95
7.18
7.13
6.65
5.76
4.66
3.64
3.00
2.90
3.29
3.90
4.38
4.38
3.73
2.59
1.30
0.23
-0.52
-1.05
-1.61
-2.39
-3.49
-5.01
-6.88
-9.10
-11.48
-13.68
-15.34
-16.04
-15.50
-13.73
-11.05
-8.03
-5.17
-2.76
-0.79
0.83
2.11
2.96
3.34
3.28
2.97
2.64
2.52
2.76
3.31
3.94
4.31
4.17
3.54
2.71
2.00
1.68
1.90
2.57
3.48
4.31
4.73
4.47
3.37
1.44
-1.17
-3.99
-6.46
-8.10
-8.81
-8.98
-9.22
-10.06
-11.78
-14.29
-17.28
-20.31
-22.82
-24.32
-24.37
-22.80
-19.74
-15.57
-10.84
-6.04
-1.57
2.40
5.73
8.28
9.93
10.75
11.07
11.23
11.52
11.80
11.82
11.37
10.51
9.55
8.82
8.55
8.66
8.86
8.74
7.97
6.55
4.71
2.92
1.50
0.58
-0.04
-0.66
-1.53
-2.83
-4.44
-6.14
-7.76
-9.24
-10.65
-12.06
-13.48
-14.93
-16.57
-18.73
-21.66
-25.26
-29.02
-32.01
-33.32
-32.30
-28.81
-23.23
-16.30
-9.02
-2.20
3.56
8.03
11.22
13.30
14.59
15.40
16.01
16.48
16.86
17.20
17.53
17.86
18.04
17.90
17.36
16.52
15.63
15.00
14.70
14.72
14.84
14.81
14.37
13.39
12.00
10.42
8.96
7.71
6.58
5.39
3.95
2.27
0.31
-1.84
-4.07
-6.25
-8.17
-9.70
-10.79
-11.61
-12.53
-14.12
-16.84
-20.77
-25.35
-29.56
-32.22
-32.54
-30.31
-25.82
-19.73
-12.81
-5.85
0.49
5.83
9.94
12.88
14.75
15.86
16.51
17.04
17.64
18.28
18.83
19.13
19.03
18.47
17.45
16.13
14.73
13.50
12.55
11.83
11.26
10.79
10.39
10.04
9.60
8.93
7.88
6.45
4.64
2.54
0.37
-1.74
-3.62
-5.28
-6.83
-8.34
-9.90
-11.64
-13.80
-16.63
-20.16
-24.09
-27.59
-29.76
-29.83
-27.44
-22.83
-16.68
-9.98
-3.65
1.79
6.19
9.75
12.71
15.20
17.26
18.84
19.88
20.34
20.24
19.80
19.23
18.77
18.44
18.09
17.64
17.05
16.41
15.70
14.77
13.49
11.76
9.72
7.56
5.57
4.01
2.87
1.99
0.99
-0.47
-2.42
-4.75
-7.12
-9.30
-11.19
-12.69
-13.81
-14.64
-15.56
-17.10
-19.66
-23.31
-27.52
-31.39
-33.81
-33.87
-31.22
-26.09
-19.33
-11.97
-4.88
1.41
6.74
11.09
14.46
16.95
18.69
19.88
20.64
21.01
21.03
20.77
20.40
19.96
19.44
18.66
17.50
15.99
14.30
12.74
11.61
11.07
11.07
11.34
11.52
11.33
10.66
9.67
8.48
7.20
5.80
4.30
2.75
1.23
-0.20
-1.55
-2.79
-3.91
-4.89
-5.80
-6.71
-7.61
-8.46
-9.24
-10.16
-11.55
-13.77
-17.02
-21.13
-25.65
-29.79
-32.60
-33.30
-31.51
-27.45
-21.90
-15.66
-9.45
-3.69
1.36
5.51
8.76
11.14
12.81
13.92
14.64
15.19
15.65
16.14
16.55
16.80
16.81
16.56
16.07
15.32
14.32
13.19
12.13
11.42
11.11
11.09
11.19
11.16
10.89
10.29
9.36
8.29
7.28
6.56
6.12
5.79
5.34
4.55
3.38
1.87
0.15
-1.58
-3.18
-4.54
-5.73
-6.87
-8.04
-9.28
-10.66
-12.34
-14.47
-17.03
-19.66
-21.76
-22.73
-22.21
-20.16
-16.85
-12.69
-8.19
-3.78
0.26
3.74
6.55
8.55
9.71
10.12
10.09
9.98
10.01
10.25
10.58
10.87
11.05
11.03
10.82
10.54
10.33
10.34
10.50
10.62
10.48
9.98
9.16
8.13
7.08
6.19
5.56
5.16
4.74
3.98
2.75
1.16
-0.45
-1.82
-2.82
-3.44
-3.86
-4.24
-4.84
-5.89
-7.38
-9.11
-10.63
-11.50
-11.37
-10.10
-7.83
-4.89
-1.72
1.27
3.81
5.77
7.09
7.70
7.67
7.22
6.65
6.23
5.98
5.82
5.64
5.35
4.96
4.42
3.71
2.85
1.86
0.89
0.06
-0.47
-0.68
-0.68
-0.73
-1.15
-2.03
-3.34
-4.82
-6.21
-7.39
-8.24
-8.77
-8.97
-9.01
-9.12
-9.58
-10.69
-12.50
-14.86
-17.33
-19.21
-19.79
-18.63
-15.80
-11.82
-7.39
-3.13
0.62
3.74
6.22
8.12
9.52
10.54
11.22
11.61
11.76
11.70
11.48
11.08
10.38
9.41
8.28
7.17
6.21
5.44
4.80
4.24
3.68
3.04
2.22
1.26
0.25
-0.62
-1.27
-1.70
-2.00
-2.27
-2.56
-3.00
-3.61
-4.39
-5.35
-6.50
-7.98
-9.88
-12.21
-14.79
-17.30
-19.34
-20.50
-20.40
-18.87
-16.05
-12.34
-8.31
-4.42
-0.92
2.15
4.81
7.11
9.05
10.58
11.61
12.06
12.09
11.91
11.85
12.02
12.36
12.64
12.58
11.97
10.74
9.01
7.11
5.45
4.34
3.82
3.63
3.42
2.89
1.86
0.32
-1.63
-3.71
-5.59
-6.94
-7.71
-8.06
-8.23
-8.61
-9.54
-11.29
-13.99
-17.41
-20.96
-23.81
-25.23
-24.71
-22.13
-17.83
-12.46
-6.89
-1.90
2.10
5.11
7.41
9.35
11.08
12.63
13.83
14.59
14.85
14.66
14.21
13.73
13.36
13.04
12.62
11.95
11.00
9.87
8.69
7.52
6.45
5.50
4.71
4.02
3.31
2.45
1.30
-0.22
-2.08
-4.14
-6.10
-7.67
-8.73
-9.43
-10.11
-11.22
-13.10
-15.90
-19.58
-23.72
-27.65
-30.51
-31.56
-30.42
-27.09
-21.92
-15.50
-8.56
-1.84
4.11
8.93
12.52
14.90
16.19
16.67
16.64
16.48
16.40
16.39
16.36
16.12
15.57
14.68
13.57
12.53
11.86
11.72
12.00
12.36
12.47
12.19
11.59
10.77
9.81
8.75
7.60
6.41
5.15
3.75
2.10
0.05
-2.44
-5.34
-8.32
-11.01
-13.07
-14.42
-15.26
-15.99
-16.98
-18.60
-21.08
-24.52
-28.67
-32.81
-35.86
-36.74
-34.81
-30.14
-23.42
-15.72
-8.04
-1.11
4.80
9.72
13.76
16.90
19.02
20.15
20.45
20.32
20.10
19.96
19.92
19.82
19.53
18.92
18.08
17.16
16.33
15.67
15.08
14.36
13.42
12.24
10.92
9.51
7.92
6.15
4.33
2.71
1.48
0.65
-0.00
-0.88
-2.31
-4.52
-7.41
-10.63
-13.65
-15.99
-17.45
-18.18
-18.52
-18.93
-19.83
-21.51
-24.03
-27.10
-30.06
-32.11
-32.56
-30.97
-27.25
-21.62
-14.60
-6.97
0.40
6.76
11.65
14.91
16.69
17.42
17.60
17.74
18.08
18.59
19.07
19.28
19.08
18.47
17.48
16.29
15.08
14.04
13.18
12.42
11.70
11.01
10.43
9.99
9.60
9.19
8.65
7.92
6.97
5.72
4.08
1.95
-0.64
-3.59
-6.58
-9.20
-11.11
-12.16
-12.68
-13.24
-14.43
-16.67
-20.01
-24.11
-28.29
-31.59
-33.04
-31.95
-28.24
-22.47
-15.54
-8.48
-2.03
3.34
7.46
10.39
12.30
13.44
14.03
14.30
14.57
15.07
15.91
16.88
17.66
17.88
17.46
16.55
15.46
14.42
13.57
12.84
12.09
11.09
9.79
8.27
6.66
5.10
3.60
2.16
0.85
-0.28
-1.26
-2.30
-3.61
-5.26
-7.09
-8.79
-10.18
-11.25
-12.18
-13.26
-14.73
-16.73
-19.22
-21.96
-24.53
-26.39
-26.88
-25.45
-21.95
-16.75
-10.75
-4.91
0.12
4.18
7.50
10.30
12.70
14.64
15.96
16.62
16.71
16.49
16.27
16.21
16.24
16.09
15.48
14.23
12.37
10.08
7.74
5.69
4.10
2.94
1.98
1.07
0.21
-0.49
-0.98
-1.36
-1.89
-2.71
-3.85
-5.09
-6.28
-7.22
-7.96
-8.69
-9.68
-11.30
-13.65
-16.64
-19.88
-22.85
-24.85
-25.26
-23.68
-20.12
-15.09
-9.40
-3.89
0.88
4.73
7.75
10.09
11.91
13.20
13.88
13.90
13.32
12.37
11.41
10.76
10.46
10.32
9.98
9.13
7.74
5.98
4.33
3.26
3.03
3.51
4.15
4.38
3.85
2.58
0.89
-0.86
-2.41
-3.71
-4.82
-5.87
-7.08
-8.58
-10.52
-13.02
-16.20
-20.00
-24.00
-27.46
-29.46
-29.34
-26.93
-22.48
-16.74
-10.47
-4.41
0.95
5.48
9.22
12.31
14.71
16.36
17.22
17.40
17.18
16.83
16.49
16.22
15.86
15.25
14.23
12.73
10.94
9.10
7.57
6.48
5.81
5.47
5.36
5.38
5.31
4.93
4.09
2.75
1.05
-0.86
-2.88
-4.91
-6.95
-9.00
-11.15
-13.60
-16.52
-20.10
-24.35
-29.07
-33.73
-37.38
-38.99
-37.70
-33.32
-26.40
-18.00
-9.30
-1.21
5.70
11.32
15.77
19.26
21.91
23.70
24.58
24.63
24.14
23.41
22.67
21.89
20.97
19.76
18.26
16.55
14.93
13.69
13.02
12.95
13.20
13.41
13.28
12.67
11.58
10.09
8.38
6.68
5.21
4.01
2.87
1.49
-0.40
-2.81
-5.51
-8.15
-10.39
-12.12
-13.42
-14.61
-16.14
-18.33
-21.38
-25.30
-29.91
-34.73
-38.91
-41.41
-41.22
-37.90
-31.76
-23.69
-14.91
-6.44
0.99
7.09
11.94
15.74
18.74
21.07
22.75
23.82
24.39
24.63
24.73
24.81
24.94
25.11
25.18
24.93
24.14
22.78
21.07
19.38
17.98
16.91
16.06
15.18
14.11
12.73
11.04
9.23
7.47
5.87
4.33
2.72
0.90
-1.14
-3.27
-5.44
-7.57
-9.64
-11.62
-13.41
-14.94
-16.13
-17.08
-18.05
-19.57
-22.16
-26.01
-30.73
-35.39
-38.80
-39.97
-38.33
-33.91
-27.23
-19.24
-11.02
-3.44
2.97
8.12
12.20
15.44
18.10
20.28
21.98
23.13
23.70
23.81
23.58
23.16
22.50
21.47
20.03
18.28
16.54
15.17
14.43
14.42
14.92
15.52
15.63
14.82
13.04
10.65
8.28
6.35
4.97
3.89
2.72
1.22
-0.62
-2.63
-4.53
-6.14
-7.42
-8.43
-9.29
-10.11
-11.14
-12.72
-15.28
-18.90
-23.21
-27.33
-30.25
-31.19
-29.80
-26.24
-21.01
-14.82
-8.41
-2.40
2.83
7.13
10.55
13.22
15.22
16.60
17.38
17.55
17.27
16.81
16.42
16.22
16.09
15.86
15.43
14.87
14.29
13.75
13.24
12.75
12.25
11.67
10.94
9.98
8.80
7.49
6.17
4.95
3.87
2.81
1.66
0.30
-1.15
-2.44
-3.38
-3.94
-4.41
-5.11
-6.28
-7.98
-10.13
-12.67
-15.48
-18.37
-20.96
-22.78
-23.44
-22.68
-20.53
-17.30
-13.49
-9.60
-5.91
-2.54
0.55
3.28
5.55
7.24
8.32
8.88
9.02
8.87
8.63
8.46
8.48
8.64
8.81
8.88
8.83
8.76
8.72
8.72
8.71
8.60
8.32
7.77
6.88
5.66
4.14
2.41
0.59
-1.01
-2.08
-2.44
-2.21
-1.90
-2.09
-3.18
-5.16
-7.64
-10.08
-11.95
-12.86
-12.67
-11.44
-9.43
-7.07
-4.83
-3.12
-2.11
-1.61
-1.16
-0.31
1.06
2.69
4.04
4.70
4.52
3.66
2.49
1.31
0.40
-0.19
-0.46
-0.50
-0.48
-0.52
-0.87
-1.62
-2.71
-3.90
-4.90
-5.54
-5.89
-6.22
-6.77
-7.78
-9.33
-11.49
-14.24
-17.31
-20.21
-22.19
-22.56
-20.84
-17.20
-12.32
-7.18
-2.59
1.12
4.05
6.46
8.37
9.65
10.06
9.58
8.51
7.28
6.32
5.85
5.83
5.96
5.91
5.35
4.13
2.27
-0.10
-2.57
-4.71
-6.23
-7.13
-7.77
-8.59
-9.84
-11.60
-13.78
-16.41
-19.58
-23.19
-26.82
-29.57
-30.40
-28.56
-24.01
-17.61
-10.69
-4.46
0.51
4.30
7.42
10.27
12.95
15.24
16.76
17.27
16.75
15.48
13.90
12.42
11.18
10.07
8.76
7.03
4.83
2.35
-0.04
-2.05
-3.57
-4.75
-5.95
-7.43
-9.30
-11.58
-14.37
-17.95
-22.52
-28.05
-33.95
-39.15
-42.48
-42.89
-39.93
-33.89
-25.67
-16.43
-7.22
1.34
9.05
15.85
21.62
26.09
28.91
29.94
29.35
27.82
26.19
25.12
24.69
24.44
23.71
22.04
19.47
16.50
13.73
11.68
10.50
9.90
9.28
7.92
5.34
1.52
-3.19
-8.18
-12.84
-16.81
-20.03
-22.68
-25.20
-28.05
-31.68
-36.36
-42.08
-48.33
-54.08
-57.85
-58.33
-54.80
-47.53
-37.48
-25.93
-14.01
-2.41
8.40
18.10
26.31
32.66
36.97
39.36
40.29
40.48
40.50
40.67
40.92
41.05
40.90
40.46
39.82
39.08
38.43
37.96
37.70
37.52
37.14
36.34
34.99
33.16
30.98
28.67
26.38
24.17
22.01
19.78
17.45
15.04
12.66
10.38
8.10
5.77
3.44
1.28
-0.54
-2.01
-3.19
-4.25
-5.33
-6.60
-8.25
-10.36
-12.88
-15.68
-18.53
-21.30
-23.82
-26.07
-28.07
-29.98
-32.13
-34.84
-38.40
-42.92
-48.15
-53.32
-57.15
-58.21
-55.41
-48.60
-38.68
-27.21
-15.87
-5.75
2.71
9.69
15.54
20.45
24.28
26.66
27.50
27.02
25.77
24.39
23.28
22.63
22.49
22.76
23.28
23.73
23.83
23.45
22.61
21.53
20.45
19.46
18.52
17.43
15.98
14.10
11.84
9.41
7.04
4.87
2.99
1.43
0.10
-1.17
-2.67
-4.57
-6.89
-9.61
-12.73
-16.39
-20.63
-25.13
-29.14
-31.63
-31.71
-28.95
-23.55
-16.34
-8.33
-0.55
6.32
11.93
16.21
19.21
21.13
22.19
22.60
22.45
21.74
20.60
19.28
18.13
17.38
16.99
16.72
16.32
15.63
14.70
13.70
12.82
12.12
11.52
10.81
9.68
7.96
5.67
3.02
0.31
-2.17
-4.32
-6.27
-8.21
-10.40
-12.89
-15.59
-18.46
-21.58
-25.12
-28.98
-32.62
-35.04
-35.19
-32.49
-27.08
-19.75
-11.61
-3.67
3.39
9.29
14.07
17.84
20.68
22.63
23.78
24.16
23.81
22.80
21.32
19.75
18.45
17.66
17.32
17.19
16.95
16.34
15.26
13.72
11.88
9.94
8.10
6.48
5.08
3.71
2.23
0.54
-1.34
-3.21
-4.90
-6.37
-7.76
-9.44
-11.58
-14.14
-16.89
-19.65
-22.52
-25.76
-29.46
-33.34
-36.62
-38.31
-37.62
-34.22
-28.48
-21.14
-13.05
-4.92
2.70
9.34
14.54
18.07
19.98
20.69
20.78
20.71
20.71
20.82
20.95
21.00
20.86
20.51
20.07
19.62
19.25
18.93
18.48
17.68
16.34
14.49
12.52
10.95
10.18
10.14
10.28
10.01
8.97
7.31
5.49
3.98
2.91
2.15
1.40
0.36
-1.07
-2.86
-4.87
-6.98
-9.12
-11.14
-12.93
-14.43
-15.74
-17.16
-18.94
-21.28
-24.17
-27.52
-31.14
-34.61
-37.37
-38.72
-38.05
-35.08
-29.95
-23.13
-15.36
-7.47
-0.15
6.14
11.24
15.20
18.09
20.06
21.23
21.70
21.60
21.07
20.41
19.98
19.99
20.41
20.88
21.01
20.55
19.53
18.25
16.99
16.02
15.36
14.88
14.34
13.51
12.31
10.91
9.62
8.60
7.88
7.22
6.34
5.06
3.39
1.59
-0.03
-1.27
-2.18
-3.07
-4.18
-5.64
-7.35
-9.14
-10.91
-12.56
-13.95
-14.98
-15.52
-15.69
-15.79
-16.21
-17.36
-19.40
-22.26
-25.58
-28.73
-30.98
-31.66
-30.24
-26.57
-21.04
-14.48
-8.00
-2.49
1.75
4.95
7.62
10.10
12.41
14.33
15.65
16.33
16.65
16.89
17.18
17.25
16.73
15.39
13.38
11.17
9.30
8.06
7.45
7.34
7.54
7.92
8.37
8.74
8.93
8.91
8.81
8.89
9.31
9.96
10.43
10.09
8.67
6.36
3.77
1.60
0.16
-0.64
-1.15
-1.72
-2.53
-3.53
-4.59
-5.71
-6.99
-8.50
-10.12
-11.53
-12.45
-12.91
-13.37
-14.42
-16.42
-19.23
-22.21
-24.54
-25.50
-24.71
-22.19
-18.32
-13.60
-8.67
-4.06
-0.19
2.68
4.67
6.05
7.13
8.02
8.62
8.81
8.67
8.46
8.46
8.74
9.08
9.15
8.72
7.85
6.92
6.30
6.21
6.49
6.76
6.76
6.48
6.13
5.87
5.67
5.37
4.84
4.06
3.18
2.34
1.60
0.95
0.27
-0.57
-1.65
-2.95
-4.33
-5.56
-6.46
-6.98
-7.31
-7.88
-9.14
-11.29
-13.94
-16.25
-17.24
-16.39
-13.92
-10.58
-7.24
-4.42
-2.16
-0.15
1.92
4.19
6.48
8.52
10.05
10.94
11.19
10.90
10.20
9.42
8.88
8.77
8.97
9.00
8.40
7.01
5.14
3.41
2.39
2.26
2.79
3.41
3.63
3.19
2.15
0.73
-0.93
-2.77
-4.73
-6.60
-8.14
-9.18
-9.86
-10.61
-11.89
-13.95
-16.60
-19.30
-21.29
-21.89
-20.78
-18.08
-14.27
-10.00
-5.72
-1.73
1.82
4.83
7.19
8.81
9.65
9.79
9.57
9.43
9.70
10.43
11.28
11.80
11.64
10.74
9.31
7.70
6.30
5.36
4.98
5.07
5.34
5.50
5.32
4.76
3.89
2.86
1.73
0.60
-0.49
-1.65
-2.89
-4.24
-5.70
-7.22
-8.80
-10.27
-11.36
-11.87
-11.88
-11.86
-12.48
-14.24
-17.25
-20.98
-24.48
-26.65
-26.64
-24.13
-19.48
-13.51
-7.22
-1.40
3.54
7.50
10.64
13.11
14.91
16.00
16.30
15.97
15.44
15.15
15.34
15.88
16.39
16.50
16.06
15.11
13.82
12.45
11.25
10.41
9.97
9.81
9.64
9.15
8.19
6.73
4.99
3.25
1.64
0.13
-1.48
-3.21
-4.84
-6.06
-6.70
-6.96
-7.25
-7.89
-8.91
-9.98
-10.69
-10.83
-10.48
-10.10
-10.29
-11.54
-14.10
-17.81
-22.23
-26.55
-29.69
-30.62
-28.77
-24.29
-18.11
-11.45
-5.31
-0.19
3.90
7.17
9.74
11.64
12.90
13.68
14.30
15.04
15.93
16.68
16.79
16.02
14.50
12.72
11.21
10.21
9.74
9.63
9.67
9.75
9.74
9.56
9.18
8.65
8.06
7.46
6.87
6.26
5.61
4.82
3.88
2.76
1.41
-0.26
-2.30
-4.55
-6.64
-8.19
-9.02
-9.27
-9.31
-9.44
-9.82
-10.43
-11.35
-12.72
-14.72
-17.38
-20.36
-23.04
-24.61
-24.35
-22.03
-18.00
-13.04
-8.01
-3.50
0.33
3.53
6.31
8.71
10.61
11.82
12.18
11.89
11.40
11.17
11.35
11.73
11.89
11.56
10.83
10.07
9.68
9.84
10.46
11.22
11.74
11.82
11.41
10.62
9.61
8.50
7.42
6.53
5.85
5.27
4.43
3.08
1.17
-1.06
-3.18
-4.87
-6.00
-6.74
-7.50
-8.70
-10.62
-13.12
-15.67
-17.52
-18.02
-16.88
-14.22
-10.52
-6.42
-2.56
0.67
3.21
5.23
6.92
8.32
9.25
9.56
9.19
8.32
7.22
6.13
5.19
4.38
3.65
2.89
2.16
1.58
1.25
1.23
1.27
1.13
0.59
-0.43
-1.82
-3.48
-5.21
-6.79
-8.04
-8.85
-9.30
-9.48
-9.57
-9.69
-10.07
-11.01
-12.78
-15.39
-18.47
-21.36
-23.23
-23.44
-21.80
-18.56
-14.33
-9.68
-5.00
-0.46
3.80
7.50
10.27
11.97
12.72
12.91
13.03
13.38
13.98
14.53
14.73
14.43
13.72
12.83
11.80
10.56
8.92
6.85
4.63
2.72
1.62
1.50
2.12
2.80
2.91
2.05
0.31
-1.84
-3.93
-5.63
-6.98
-8.18
-9.49
-10.95
-12.46
-13.90
-15.34
-17.14
-19.77
-23.42
-27.62
-31.32
-33.27
-32.61
-29.14
-23.43
-16.54
-9.54
-3.22
2.13
6.58
10.24
13.08
14.94
15.80
15.83
15.45
15.09
15.07
15.50
16.23
17.02
17.51
17.50
16.99
16.15
15.27
14.45
13.68
12.85
11.87
10.74
9.51
8.29
7.20
6.23
5.29
4.19
2.89
1.49
0.09
-1.27
-2.78
-4.61
-6.79
-9.11
-11.17
-12.63
-13.32
-13.38
-13.21
-13.39
-14.51
-16.86
-20.31
-24.18
-27.57
-29.47
-29.09
-26.19
-21.13
-14.87
-8.53
-2.94
1.55
5.14
8.12
10.68
12.86
14.53
15.59
16.05
16.02
15.82
15.66
15.65
15.61
15.25
14.42
13.12
11.61
10.13
8.85
7.89
7.27
7.00
6.98
7.11
7.35
7.66
8.07
8.54
8.89
8.98
8.62
7.74
6.28
4.27
1.95
-0.34
-2.26
-3.64
-4.48
-4.93
-5.20
-5.50
-6.16
-7.50
-9.64
-12.48
-15.54
-18.22
-19.92
-20.19
-18.90
-16.26
-12.84
-9.22
-5.79
-2.69
0.18
2.88
5.37
7.51
9.19
10.40
11.18
11.60
11.80
11.86
11.82
11.58
11.01
10.08
8.86
7.56
6.31
5.20
4.34
3.77
3.55
3.57
3.61
3.50
3.06
2.30
1.28
0.08
-1.13
-2.23
-3.12
-3.84
-4.53
-5.27
-6.22
-7.48
-9.24
-11.57
-14.22
-16.70
-18.23
-18.32
-16.80
-13.97
-10.41
-6.71
-3.39
-0.69
1.42
3.07
4.46
5.59
6.44
7.02
7.41
7.76
8.06
8.20
8.09
7.75
7.34
7.01
6.81
6.72
6.65
6.53
6.29
5.89
5.38
4.76
3.99
2.92
1.49
-0.20
-1.98
-3.63
-5.13
-6.56
-7.92
-9.12
-9.93
-10.32
-10.49
-10.88
-11.98
-14.11
-17.22
-20.84
-24.08
-25.98
-25.82
-23.42
-19.21
-13.93
-8.38
-3.11
1.58
5.49
8.50
10.49
11.48
11.69
11.47
11.22
11.23
11.60
12.17
12.62
12.68
12.26
11.51
10.63
9.82
9.20
8.81
8.60
8.42
8.06
7.38
6.40
5.35
4.50
4.00
3.74
3.61
3.48
3.32
3.02
2.40
1.36
-0.14
-1.97
-3.92
-5.78
-7.34
-8.58
-9.71
-11.17
-13.45
-16.70
-20.62
-24.43
-27.24
-28.24
-27.01
-23.63
-18.65
-12.99
-7.52
-2.82
0.96
4.00
6.51
8.62
10.39
11.82
12.91
13.64
14.01
14.13
14.05
13.88
13.51
12.83
11.67
10.14
8.61
7.53
7.15
7.40
7.90
8.23
8.06
7.37
6.37
5.37
4.64
4.24
4.00
3.78
3.47
3.12
2.76
2.33
1.71
0.87
-0.15
-1.24
-2.36
-3.61
-4.98
-6.42
-7.84
-9.29
-10.94
-12.84
-14.87
-16.67
-17.87
-18.11
-17.18
-15.16
-12.29
-9.03
-5.78
-2.74
0.07
2.72
5.13
7.05
8.20
8.49
8.11
7.45
6.89
6.59
6.47
6.39
6.23
6.02
5.95
6.14
6.61
7.13
7.43
7.32
6.89
6.41
6.08
5.91
5.71
5.25
4.49
3.48
2.33
1.13
-0.06
-1.10
-1.84
-2.20
-2.26
-2.13
-2.08
-2.35
-3.19
-4.69
-6.59
-8.45
-9.72
-10.08
-9.49
-8.11
-6.17
-3.93
-1.62
0.54
2.41
3.91
5.00
5.62
5.73
5.47
5.05
4.73
4.65
4.76
4.89
4.89
4.64
4.11
3.36
2.60
2.04
1.78
1.73
1.62
1.23
0.50
-0.47
-1.54
-2.63
-3.76
-4.95
-6.08
-7.01
-7.65
-8.08
-8.56
-9.41
-10.89
-12.99
-15.45
-17.75
-19.37
-19.92
-19.31
-17.61
-14.97
-11.58
-7.70
-3.72
-0.11
2.83
4.99
6.47
7.44
8.08
8.58
9.06
9.56
10.02
10.28
10.31
10.15
9.90
9.58
9.12
8.43
7.46
6.32
5.15
4.08
3.24
2.68
2.36
2.09
1.62
0.76
-0.47
-1.91
-3.35
-4.64
-5.74
-6.64
-7.36
-8.02
-8.81
-10.10
-12.24
-15.37
-19.31
-23.40
-26.65
-28.06
-27.06
-23.70
-18.73
-13.14
-7.76
-2.94
1.33
5.16
8.55
11.34
13.42
14.74
15.38
15.57
15.58
15.60
15.66
15.62
15.25
14.47
13.42
12.29
11.29
10.46
9.74
9.12
8.56
8.04
7.53
7.03
6.56
6.18
5.83
5.34
4.60
3.54
2.15
0.43
-1.56
-3.64
-5.59
-7.20
-8.47
-9.57
-10.72
-12.23
-14.37
-17.34
-21.16
-25.38
-29.20
-31.59
-31.80
-29.55
-25.05
-18.94
-12.02
-5.09
1.22
6.53
10.74
13.85
15.94
17.08
17.47
17.34
17.05
16.84
16.78
16.83
16.86
16.72
16.25
15.37
14.18
12.96
12.03
11.56
11.43
11.35
10.97
10.11
8.77
7.13
5.41
3.81
2.46
1.36
0.35
-0.74
-2.03
-3.42
-4.77
-5.96
-6.82
-7.21
-7.04
-6.40
-5.63
-5.24
-5.68
-7.18
-9.64
-12.65
-15.59
-17.79
-18.66
-17.95
-15.80
-12.67
-9.09
-5.44
-1.96
1.14
3.68
5.63
7.06
8.15
9.07
9.88
10.61
11.18
11.52
11.49
11.03
10.23
9.23
8.29
7.52
6.97
6.62
6.43
6.38
6.31
6.07
5.62
5.04
4.53
4.17
3.96
3.82
3.62
3.31
2.80
2.02
1.00
-0.21
-1.47
-2.67
-3.69
-4.36
-4.62
-4.45
-4.19
-4.25
-4.95
-6.38
-8.19
-9.92
-11.03
-11.11
-10.03
-7.91
-5.17
-2.41
-0.03
1.70
2.79
3.37
3.64
3.83
4.04
4.32
4.51
4.41
4.05
3.60
3.35
3.42
3.76
4.20
4.53
4.72
4.77
4.70
4.51
4.22
3.89
3.59
3.36
3.15
2.83
2.30
1.46
0.38
-0.76
-1.68
-2.12
-2.05
-1.70
-1.46
-1.68
-2.51
-3.89
-5.58
-7.24
-8.44
-8.83
-8.23
-6.80
-4.86
-2.77
-0.75
1.13
2.82
4.29
5.52
6.48
7.15
7.43
7.29
6.80
6.19
5.62
5.14
4.57
3.71
2.52
1.19
0.02
-0.73
-1.02
-0.95
-0.70
-0.43
-0.27
-0.27
-0.50
-0.98
-1.70
-2.63
-3.57
-4.22
-4.34
-3.87
-3.09
-2.45
-2.37
-3.06
-4.50
-6.46
-8.57
-10.34
-11.30
-11.12
-9.83
-7.81
-5.47
-3.18
-1.11
0.70
2.27
3.73
5.12
6.40
7.32
7.58
7.13
6.11
4.95
4.00
3.47
3.32
3.35
3.31
2.92
2.16
1.19
0.32
-0.16
-0.19
0.06
0.30
0.32
0.04
-0.61
-1.59
-2.79
-4.07
-5.30
-6.37
-7.32
-8.14
-8.98
-10.06
-11.72
-14.23
-17.50
-21.02
-23.96
-25.58
-25.45
-23.51
-20.06
-15.60
-10.72
-5.95
-1.62
2.11
5.24
7.79
9.70
10.99
11.76
12.14
12.26
12.19
12.08
11.95
11.81
11.54
11.01
10.18
9.15
8.14
7.22
6.37
5.57
4.81
4.14
3.58
3.05
2.46
1.70
0.76
-0.37
-1.60
-2.75
-3.64
-4.13
-4.27
-4.24
-4.21
-4.38
-4.94
-6.09
-8.00
-10.63
-13.62
-16.37
-18.21
-18.64
-17.49
-14.88
-11.23
-7.15
-3.23
0.19
3.03
5.41
7.45
9.12
10.40
11.23
11.63
11.70
11.53
11.25
10.97
10.70
10.36
9.86
9.20
8.55
8.11
7.95
7.91
7.79
7.45
6.83
6.00
5.02
4.10
3.41
3.06
3.00
3.04
2.99
2.76
2.36
1.84
1.21
0.57
-0.03
-0.50
-0.89
-1.42
-2.37
-3.97
-6.33
-9.24
-12.26
-14.69
-15.91
-15.63
-14.07
-11.81
-9.40
-7.16
-5.14
-3.27
-1.59
-0.20
0.80
1.47
1.90
2.23
2.57
2.99
3.47
3.93
4.23
4.32
4.24
4.13
4.09
4.19
4.54
5.17
6.03
6.90
7.53
7.84
7.85
7.75
7.60
7.32
6.84
6.12
5.30
4.51
3.83
3.25
2.63
1.76
0.39
-1.56
-3.81
-5.85
-7.12
-7.37
-6.73
-5.53
-4.16
-2.91
-1.91
-1.12
-0.49
0.01
0.39
0.66
0.92
1.37
2.05
2.85
3.41
3.46
3.03
2.42
2.03
2.02
2.32
2.67
2.85
2.82
2.65
2.43
2.23
2.05
1.80
1.35
0.61
-0.40
-1.57
-2.64
-3.47
-3.96
-4.30
-4.69
-5.41
-6.44
-7.47
-8.06
-7.86
-6.93
-5.65
-4.45
-3.53
-2.70
-1.71
-0.42
0.94
1.99
2.35
1.98
1.24
0.66
0.65
1.21
2.03
2.63
2.81
2.69
2.63
2.88
3.31
3.56
3.12
1.83
-0.10
-2.05
-3.43
-4.00
-3.85
-3.47
-3.31
-3.78
-4.97
-6.84
-9.09
-11.39
-13.46
-14.98
-15.84
-15.98
-15.45
-14.35
-12.72
-10.55
-7.86
-4.80
-1.66
1.22
3.61
5.45
6.73
7.49
7.87
8.01
8.07
8.12
8.04
7.72
7.05
6.02
4.74
3.43
2.34
1.65
1.34
1.19
0.90
0.34
-0.50
-1.41
-2.29
-3.13
-3.92
-4.68
-5.34
-5.93
-6.60
-7.58
-9.16
-11.51
-14.67
-18.37
-22.01
-24.81
-26.02
-25.24
-22.50
-18.17
-12.81
-7.02
-1.39
3.59
7.68
10.77
12.95
14.24
14.69
14.41
13.62
12.69
11.91
11.44
11.29
11.32
11.37
11.22
10.73
9.97
9.09
8.33
7.72
7.18
6.56
5.73
4.65
3.33
1.82
0.30
-1.07
-2.14
-2.97
-3.70
-4.49
-5.45
-6.64
-8.22
-10.33
-12.92
-15.66
-17.98
-19.29
-19.16
-17.48
-14.53
-10.77
-6.78
-3.01
0.41
3.52
6.42
9.05
11.20
12.77
13.70
14.16
14.27
14.13
13.83
13.42
12.99
12.57
12.10
11.58
10.93
10.20
9.38
8.54
7.78
7.19
6.71
6.17
5.31
4.05
2.47
0.82
-0.68
-1.97
-2.97
-3.67
-4.06
-4.22
-4.45
-5.00
-6.14
-7.90
-10.08
-12.26
-13.88
-14.49
-13.85
-12.06
-9.46
-6.36
-3.04
0.31
3.39
5.88
7.57
8.38
8.51
8.22
7.74
7.28
6.89
6.58
6.20
5.66
5.00
4.30
3.69
3.16
2.60
1.96
1.27
0.67
0.29
0.09
-0.04
-0.32
-0.87
-1.70
-2.66
-3.50
-3.98
-4.10
-4.19
-4.73
-6.10
-8.32
-11.02
-13.60
-15.51
-16.31
-15.80
-14.02
-11.21
-7.72
-3.85
0.12
3.95
7.34
9.98
11.67
12.35
12.17
11.36
10.18
9.05
8.27
8.00
8.13
8.30
8.19
7.57
6.51
5.19
3.86
2.74
2.01
1.67
1.50
1.17
0.38
-0.96
-2.75
-4.75
-6.75
-8.61
-10.37
-12.09
-13.92
-16.08
-18.64
-21.58
-24.57
-27.10
-28.59
-28.49
-26.52
-22.65
-17.28
-11.07
-4.70
1.24
6.42
10.59
13.63
15.52
16.43
16.69
16.64
16.44
16.11
15.63
15.00
14.29
13.51
12.58
11.45
10.13
8.73
7.36
6.10
5.08
4.34
3.89
3.56
3.13
2.44
1.38
-0.02
-1.75
-3.77
-5.97
-8.14
-9.99
-11.37
-12.31
-13.17
-14.46
-16.65
-19.92
-24.02
-28.29
-31.79
-33.59
-33.07
-30.08
-24.98
-18.38
-11.02
-3.66
3.03
8.56
12.77
15.77
17.87
19.32
20.28
20.85
21.12
21.16
20.98
20.54
19.87
19.04
18.13
17.20
16.29
15.50
14.95
14.64
14.39
13.87
12.77
11.05
8.96
6.82
4.94
3.44
2.21
1.07
-0.21
-1.82
-3.84
-6.20
-8.68
-11.01
-12.94
-14.37
-15.26
-15.83
-16.42
-17.54
-19.53
-22.42
-25.78
-28.86
-30.85
-31.09
-29.19
-25.11
-19.30
-12.52
-5.65
0.67
6.11
10.60
14.14
16.71
18.36
19.23
19.59
19.66
19.61
19.51
19.31
18.88
18.03
16.70
15.08
13.62
12.75
12.63
13.02
13.39
13.21
12.30
10.81
9.16
7.82
6.96
6.48
6.06
5.40
4.47
3.39
2.33
1.17
-0.36
-2.42
-4.89
-7.32
-9.29
-10.65
-11.61
-12.68
-14.32
-16.62
-19.32
-21.66
-22.83
-22.21
-19.67
-15.61
-10.70
-5.60
-0.83
3.19
6.25
8.31
9.48
10.01
10.17
10.20
10.29
10.63
11.29
12.15
12.95
13.29
12.88
11.70
10.02
8.26
6.81
5.89
5.51
5.42
5.27
4.82
3.99
2.85
1.49
-0.00
-1.50
-2.86
-3.93
-4.75
-5.57
-6.82
-8.78
-11.45
-14.58
-17.79
-20.73
-22.98
-24.16
-23.88
-21.97
-18.48
-13.72
-8.25
-2.68
2.28
6.15
8.78
10.31
11.08
11.38
11.44
11.35
11.20
11.01
10.82
10.63
10.39
10.00
9.28
8.14
6.63
5.10
3.90
3.32
3.32
3.54
3.49
2.72
1.13
-1.08
-3.46
-5.57
-7.20
-8.38
-9.36
-10.39
-11.71
-13.53
-16.02
-19.12
-22.48
-25.44
-27.11
-26.81
-24.15
-19.32
-13.05
-6.30
0.09
5.65
10.25
14.01
16.95
18.99
20.06
20.18
19.55
18.48
17.28
16.21
15.35
14.68
14.00
13.08
11.81
10.29
8.76
7.55
6.82
6.58
6.70
6.94
6.97
6.49
5.25
3.19
0.52
-2.39
-5.16
-7.50
-9.37
-10.98
-12.78
-15.26
-18.75
-23.15
-27.93
-32.23
-35.09
-35.79
-33.92
-29.49
-23.01
-15.30
-7.33
0.08
6.43
11.54
15.41
18.13
19.86
20.79
21.10
20.91
20.33
19.55
18.82
18.29
17.96
17.57
16.86
15.67
14.13
12.52
11.19
10.33
9.84
9.42
8.63
7.24
5.29
3.06
0.80
-1.36
-3.42
-5.35
-7.10
-8.58
-9.87
-11.18
-12.89
-15.36
-18.80
-23.08
-27.60
-31.44
-33.57
-33.24
-30.25
-24.88
-17.89
-10.17
-2.58
4.19
9.82
14.28
17.70
20.20
21.85
22.79
23.15
23.13
22.86
22.44
21.98
21.53
21.10
20.57
19.71
18.43
16.75
14.92
13.14
11.56
10.12
8.66
7.01
4.98
2.65
0.23
-2.06
-4.05
-5.77
-7.27
-8.57
-9.64
-10.55
-11.64
-13.30
-15.85
-19.27
-23.06
-26.42
-28.40
-28.24
-25.65
-20.92
-14.85
-8.41
-2.38
2.79
6.95
10.14
12.45
13.89
14.48
14.32
13.75
13.18
12.92
12.98
13.00
12.61
11.66
10.39
9.27
8.67
8.65
8.95
9.16
8.83
7.72
5.90
3.63
1.30
-0.71
-2.18
-3.05
-3.39
-3.49
-3.86
-5.02
-7.27
-10.49
-14.12
-17.35
-19.42
-19.71
-18.04
-14.60
-10.03
-5.09
-0.48
3.39
6.42
8.66
10.24
11.35
12.11
12.66
12.95
12.88
12.46
11.75
10.98
10.29
9.76
9.38
9.03
8.56
7.79
6.68
5.33
3.98
2.89
2.09
1.40
0.58
-0.49
-1.78
-3.18
-4.66
-6.33
-8.33
-10.65
-13.05
-15.01
-15.97
-15.51
-13.62
-10.71
-7.43
-4.32
-1.61
0.80
3.05
5.10
6.75
7.73
7.99
7.69
7.18
6.78
6.61
6.62
6.59
6.23
5.32
3.90
2.19
0.52
-0.90
-2.02
-2.88
-3.57
-4.16
-4.82
-5.70
-7.00
-8.90
-11.51
-14.83
-18.61
-22.26
-24.94
-25.80
-24.42
-20.97
-16.08
-10.64
-5.45
-1.05
2.32
4.83
6.73
8.31
9.57
10.38
10.67
10.42
9.85
9.16
8.42
7.64
6.66
5.33
3.48
1.06
-1.66
-4.28
-6.39
-7.82
-8.69
-9.21
-9.71
-10.47
-11.88
-14.26
-17.78
-22.25
-27.04
-31.17
-33.54
-33.19
-29.74
-23.54
-15.60
-7.23
0.52
7.10
12.47
16.76
20.09
22.49
23.90
24.33
23.82
22.55
20.73
18.68
16.75
15.10
13.73
12.36
10.68
8.48
5.74
2.73
-0.18
-2.58
-4.29
-5.40
-6.25
-7.27
-8.72
-10.69
-13.28
-16.68
-21.01
-26.15
-31.49
-35.95
-38.29
-37.53
-33.26
-25.82
-16.25
-5.98
3.66
11.90
18.49
23.60
27.41
29.97
31.33
31.62
31.15
30.26
29.26
28.40
27.75
27.23
26.58
25.54
24.00
21.99
19.68
17.26
14.81
12.48
10.31
8.36
6.48
4.41
1.97
-0.93
-4.12
-7.37
-10.39
-12.90
-14.80
-16.08
-17.05
-18.21
-20.04
-23.00
-27.29
-32.80
-38.87
-44.34
-47.76
-47.83
-43.97
-36.46
-26.29
-14.86
-3.46
6.88
15.52
22.27
27.21
30.59
32.65
33.67
33.94
33.79
33.57
33.42
33.42
33.36
32.87
31.55
29.07
25.61
21.79
18.46
16.29
15.29
14.92
14.35
12.93
10.51
7.49
4.57
2.46
1.39
1.07
0.81
-0.05
-1.80
-4.26
-7.05
-9.75
-12.17
-14.30
-16.23
-18.06
-19.85
-21.74
-24.06
-27.27
-31.63
-36.79
-41.59
-44.48
-44.10
-39.95
-32.58
-23.22
-13.31
-3.94
4.29
11.19
16.71
20.79
23.42
24.73
25.11
25.09
25.11
25.29
25.51
25.58
25.31
24.59
23.40
21.80
19.96
18.20
16.87
16.24
16.26
16.54
16.35
15.05
12.49
9.10
5.71
3.10
1.52
0.65
-0.05
-1.10
-2.66
-4.59
-6.63
-8.54
-10.23
-11.71
-12.97
-13.99
-14.82
-15.81
-17.44
-19.99
-23.34
-26.78
-29.33
-30.12
-28.67
-25.05
-19.81
-13.69
-7.44
-1.60
3.60
8.11
11.98
15.16
17.49
18.76
18.84
17.78
16.04
14.30
13.15
12.77
12.80
12.64
11.87
10.44
8.75
7.30
6.39
6.00
5.81
5.51
4.95
4.17
3.30
2.33
1.15
-0.36
-2.13
-3.92
-5.48
-6.72
-7.69
-8.45
-9.07
-9.62
-10.31
-11.48
-13.48
-16.37
-19.77
-22.81
-24.49
-24.06
-21.45
-17.17
-11.98
-6.57
-1.33
3.55
7.87
11.46
14.13
15.79
16.49
16.34
15.57
14.46
13.30
12.30
11.53
10.95
10.45
9.92
9.30
8.63
8.09
7.81
7.81
7.84
7.52
6.48
4.66
2.28
-0.27
-2.61
-4.54
-6.13
-7.63
-9.38
-11.60
-14.33
-17.58
-21.25
-25.23
-29.11
-32.13
-33.42
-32.24
-28.48
-22.63
-15.66
-8.59
-2.18
3.15
7.37
10.55
12.86
14.37
15.14
15.36
15.27
15.17
15.19
15.30
15.36
15.16
14.60
13.59
12.14
10.44
8.69
7.15
5.84
4.58
3.14
1.28
-1.06
-3.78
-6.71
-9.53
-11.97
-13.84
-15.24
-16.49
-18.13
-20.66
-24.31
-28.87
-33.46
-36.77
-37.51
-34.97
-29.40
-21.76
-13.34
-5.25
1.84
7.66
12.28
15.86
18.57
20.49
21.67
22.19
22.23
22.02
21.72
21.40
21.06
20.63
20.03
19.07
17.70
15.90
13.90
11.96
10.30
9.06
8.21
7.52
6.66
5.27
3.21
0.66
-2.04
-4.55
-6.77
-8.78
-10.76
-12.86
-15.13
-17.66
-20.56
-24.07
-28.33
-33.16
-37.96
-41.64
-42.94
-40.97
-35.58
-27.47
-17.88
-8.13
0.79
8.26
14.06
18.24
20.95
22.45
22.96
22.80
22.37
22.06
22.18
22.70
23.29
23.44
22.71
21.12
18.98
16.82
14.97
13.52
12.21
10.68
8.69
6.31
3.94
1.98
0.60
-0.44
-1.60
-3.23
-5.33
-7.66
-9.91
-11.84
-13.35
-14.42
-15.13
-15.68
-16.52
-18.10
-20.85
-24.91
-29.97
-35.16
-39.10
-40.41
-38.21
-32.52
-24.23
-14.66
-5.11
3.48
10.55
15.93
19.71
22.13
23.54
24.23
24.45
24.48
24.48
24.55
24.65
24.57
24.19
23.44
22.39
21.12
19.71
18.24
16.72
15.19
13.56
11.79
9.94
8.14
6.58
5.31
4.25
3.26
2.14
0.74
-1.05
-3.26
-5.74
-8.25
-10.46
-12.27
-13.80
-15.34
-17.31
-20.01
-23.57
-27.70
-31.63
-34.32
-34.76
-32.43
-27.46
-20.55
-12.66
-4.75
2.44
8.44
13.14
16.61
19.00
20.43
20.97
20.82
20.25
19.64
19.22
19.07
19.08
19.02
18.66
17.82
16.49
14.82
13.07
11.54
10.30
9.33
8.50
7.62
6.52
4.97
2.80
0.08
-2.86
-5.56
-7.72
-9.35
-10.73
-12.30
-14.37
-17.12
-20.56
-24.54
-28.69
-32.29
-34.48
-34.39
-31.56
-26.10
-18.76
-10.70
-3.09
3.31
8.27
12.01
14.83
16.91
18.28
18.89
18.75
18.00
16.80
15.44
14.16
13.07
12.05
10.79
9.09
7.02
5.01
3.53
2.80
2.66
2.58
2.01
0.64
-1.51
-4.02
-6.29
-7.91
-8.81
-9.32
-9.96
-11.22
-13.44
-16.77
-21.05
-25.75
-30.03
-32.85
-33.33
-31.03
-26.00
-18.93
-10.75
-2.56
4.71
10.60
15.04
18.22
20.36
21.60
22.08
21.97
21.56
21.06
20.60
20.25
19.89
19.35
18.33
16.64
14.37
11.85
9.58
7.85
6.69
5.89
5.13
4.19
2.84
1.01
-1.25
-3.82
-6.43
-8.98
-11.38
-13.64
-15.82
-17.97
-20.18
-22.62
-25.44
-28.74
-32.54
-36.61
-40.33
-42.72
-42.65
-39.33
-32.71
-23.62
-13.40
-3.45
5.31
12.46
18.01
22.11
24.92
26.55
27.15
26.94
26.31
25.69
25.36
25.33
25.33
25.04
24.27
23.08
21.75
20.52
19.56
18.90
18.43
17.97
17.24
16.06
14.37
12.30
10.10
8.03
6.26
4.79
3.43
1.77
-0.60
-3.78
-7.52
-11.29
-14.59
-17.17
-19.04
-20.40
-21.50
-22.69
-24.39
-26.96
-30.60
-35.12
-39.80
-43.54
-45.03
-43.31
-38.06
-29.86
-20.01
-9.95
-0.89
6.55
12.21
16.26
19.07
20.93
22.14
22.82
23.05
23.07
23.11
23.44
24.06
24.74
25.13
24.93
24.10
22.85
21.50
20.42
19.74
19.35
18.94
18.17
16.92
15.30
13.60
11.98
10.42
8.87
7.22
5.48
3.61
1.56
-0.69
-3.11
-5.57
-7.96
-10.15
-12.01
-13.52
-14.68
-15.61
-16.48
-17.39
-18.45
-19.75
-21.45
-23.64
-26.10
-28.33
-29.55
-29.08
-26.57
-22.08
-16.15
-9.52
-3.05
2.64
7.31
11.05
14.07
16.45
18.13
19.01
19.10
18.70
18.18
17.95
18.15
18.64
19.10
19.13
18.60
17.66
16.62
15.68
14.71
13.50
11.89
9.95
8.01
6.33
5.08
4.14
3.23
2.03
0.26
-2.05
-4.72
-7.44
-9.96
-12.13
-13.84
-15.08
-15.94
-16.75
-18.01
-20.08
-23.07
-26.59
-29.84
-31.92
-31.90
-29.32
-24.27
-17.46
-10.01
-2.96
2.93
7.46
10.77
13.14
14.87
16.11
16.89
17.19
17.03
16.62
16.20
15.95
15.83
15.59
15.03
14.07
12.85
11.52
10.22
9.05
8.03
7.17
6.41
5.61
4.74
3.72
2.56
1.16
-0.50
-2.33
-4.18
-5.85
-7.30
-8.63
-10.00
-11.60
-13.59
-16.18
-19.59
-23.86
-28.69
-33.39
-36.98
-38.48
-37.19
-32.99
-26.35
-18.31
-10.07
-2.54
3.76
8.73
12.49
15.18
17.03
18.28
19.19
19.94
20.59
21.17
21.65
21.95
21.87
21.22
19.96
18.18
16.13
14.07
12.11
10.35
8.79
7.36
5.92
4.35
2.67
1.03
-0.38
-1.55
-2.64
-3.83
-5.23
-6.81
-8.51
-10.23
-11.92
-13.53
-15.06
-16.65
-18.54
-20.92
-23.98
-27.62
-31.57
-35.17
-37.47
-37.56
-34.86
-29.46
-22.08
-13.78
-5.56
1.89
8.19
13.18
16.89
19.37
20.80
21.36
21.35
21.22
21.28
21.69
22.21
22.41
21.91
20.62
18.75
16.71
14.87
13.46
12.49
11.77
10.99
9.89
8.46
6.86
5.46
4.47
3.99
3.89
3.91
3.77
3.14
1.84
-0.09
-2.36
-4.63
-6.71
-8.54
-10.16
-11.67
-13.13
-14.73
-16.79
-19.55
-23.11
-27.11
-30.84
-33.29
-33.47
-30.85
-25.56
-18.49
-10.87
-3.80
2.06
6.63
10.05
12.59
14.43
15.72
16.54
16.90
16.83
16.43
15.83
15.19
14.52
13.75
12.82
11.75
10.68
9.78
9.12
8.78
8.71
8.81
8.90
8.85
8.57
8.03
7.27
6.22
4.83
3.11
1.11
-1.03
-3.19
-5.19
-6.87
-8.16
-9.28
-10.71
-12.93
-16.19
-20.19
-24.11
-26.94
-27.75
-26.12
-22.19
-16.65
-10.40
-4.18
1.54
6.59
10.81
14.06
16.22
17.33
17.59
17.26
16.62
15.94
15.33
14.84
14.40
13.82
13.02
11.93
10.59
9.08
7.53
6.16
5.16
4.61
4.28
3.70
2.44
0.31
-2.46
-5.43
-8.08
-10.07
-11.43
-12.40
-13.43
-14.89
-16.92
-19.55
-22.63
-26.00
-29.34
-31.95
-32.93
-31.44
-27.23
-20.74
-12.95
-5.03
2.12
8.02
12.54
15.89
18.27
19.86
20.75
20.99
20.77
20.34
19.87
19.37
18.69
17.80
16.72
15.62
14.58
13.54
12.38
11.00
9.43
7.76
6.20
4.88
3.87
3.05
2.24
1.32
0.20
-1.17
-2.89
-5.11
-7.83
-10.82
-13.66
-16.00
-17.80
-19.40
-21.36
-24.22
-28.13
-32.71
-36.96
-39.62
-39.63
-36.51
-30.62
-22.87
-14.39
-6.17
1.16
7.36
12.45
16.49
19.55
21.59
22.68
23.05
23.02
22.94
22.97
23.04
23.02
22.76
22.16
21.14
19.67
17.85
15.90
14.06
12.49
11.16
9.92
8.62
7.15
5.53
3.92
2.52
1.49
0.83
0.21
-0.78
-2.41
-4.63
-7.15
-9.58
-11.70
-13.47
-14.97
-16.34
-17.77
-19.47
-21.71
-24.71
-28.49
-32.76
-36.84
-39.66
-40.12
-37.53
-31.95
-24.16
-15.35
-6.64
1.17
7.69
12.83
16.72
19.52
21.42
22.53
23.00
23.04
22.96
22.92
22.88
22.57
21.76
20.38
18.64
16.85
15.30
14.19
13.61
13.49
13.61
13.70
13.52
13.02
12.25
11.28
10.17
9.00
7.83
6.72
5.63
4.51
3.31
2.09
0.92
-0.22
-1.39
-2.68
-4.12
-5.70
-7.36
-8.94
-10.23
-11.11
-11.63
-12.18
-13.22
-15.14
-17.90
-21.04
-23.81
-25.37
-25.06
-22.66
-18.48
-13.23
-7.84
-2.99
0.97
4.07
6.44
8.19
9.39
10.15
10.69
11.21
11.90
12.74
13.52
13.99
13.95
13.49
12.89
12.47
12.34
12.24
11.84
10.87
9.47
7.94
6.58
5.51
4.62
3.79
2.90
1.93
0.90
-0.14
-1.16
-2.18
-3.27
-4.45
-5.64
-6.75
-7.82
-9.07
-10.86
-13.43
-16.80
-20.61
-24.21
-26.81
-27.69
-26.40
-23.03
-18.21
-12.84
-7.76
-3.44
0.04
2.85
5.19
7.24
9.05
10.61
11.82
12.59
12.88
12.75
12.34
11.80
11.27
10.81
10.40
9.93
9.23
8.25
7.12
6.08
5.36
4.93
4.59
4.09
3.32
2.28
1.06
-0.31
-1.86
-3.60
-5.45
-7.37
-9.21
-10.80
-12.12
-13.32
-14.83
-17.09
-20.31
-24.16
-27.90
-30.60
-31.43
-29.97
-26.31
-21.00
-14.84
-8.54
-2.63
2.56
6.77
9.75
11.44
12.02
11.97
11.81
11.90
12.32
12.91
13.46
13.77
13.73
13.38
12.84
12.28
11.75
11.23
10.64
9.96
9.20
8.39
7.56
6.72
5.87
5.03
4.13
3.01
1.56
-0.30
-2.45
-4.67
-6.73
-8.39
-9.59
-10.44
-11.34
-12.73
-15.01
-18.22
-22.05
-25.90
-29.04
-30.78
-30.59
-28.18
-23.70
-17.70
-10.98
-4.33
1.67
6.72
10.64
13.43
15.15
15.94
15.98
15.47
14.71
13.93
13.34
12.91
12.46
11.90
11.22
10.56
10.07
9.76
9.63
9.62
9.65
9.63
9.39
8.79
7.80
6.50
5.08
3.70
2.49
1.39
0.29
-0.99
-2.51
-4.08
-5.42
-6.24
-6.60
-6.87
-7.62
-9.30
-12.03
-15.55
-19.31
-22.56
-24.67
-25.15
-23.85
-20.91
-16.59
-11.35
-5.75
-0.46
3.93
7.15
9.28
10.69
11.71
12.47
12.98
13.15
13.02
12.71
12.35
12.10
11.96
11.85
11.53
10.84
9.81
8.66
7.69
7.07
6.70
6.42
6.01
5.43
4.73
4.02
3.46
3.04
2.69
2.22
1.45
0.39
-0.83
-2.04
-3.31
-4.80
-6.66
-8.92
-11.34
-13.59
-15.29
-16.10
-15.85
-14.54
-12.43
-9.84
-7.04
-4.21
-1.40
1.24
3.53
5.37
6.68
7.50
7.89
7.83
7.45
6.84
6.22
5.73
5.46
5.43
5.54
5.62
5.50
5.09
4.42
3.61
2.77
1.84
0.69
-0.70
-2.19
-3.51
-4.49
-5.12
-5.58
-6.14
-7.07
-8.65
-10.96
-13.92
-17.13
-19.97
-21.80
-22.04
-20.46
-17.22
-12.87
-8.12
-3.61
0.30
3.56
6.23
8.31
9.77
10.64
11.01
11.05
10.87
10.54
10.07
9.40
8.47
7.24
5.80
4.42
3.36
2.77
2.58
2.55
2.38
1.86
0.88
-0.53
-2.22
-4.00
-5.71
-7.31
-8.74
-10.06
-11.41
-13.10
-15.60
-19.11
-23.50
-28.12
-31.97
-34.07
-33.69
-30.59
-25.09
-17.98
-10.34
-3.10
3.10
8.05
11.82
14.56
16.50
17.77
18.48
18.65
18.31
17.58
16.67
15.83
15.16
14.63
14.05
13.28
12.31
11.21
10.20
9.43
8.92
8.49
7.81
6.67
5.03
3.07
1.05
-0.93
-2.85
-4.73
-6.59
-8.40
-10.13
-11.69
-13.14
-14.65
-16.54
-19.17
-22.60
-26.44
-29.83
-31.78
-31.50
-28.74
-23.86
-17.59
-10.87
-4.40
1.50
6.73
11.30
15.10
17.88
19.53
20.15
20.09
19.78
19.55
19.61
19.87
20.04
19.78
18.84
17.33
15.58
14.01
12.81
11.90
11.11
10.23
9.29
8.37
7.56
6.93
6.48
6.14
5.73
5.07
4.01
2.49
0.56
-1.71
-4.11
-6.47
-8.62
-10.49
-12.14
-13.64
-15.10
-16.68
-18.63
-21.23
-24.43
-27.74
-30.31
-31.12
-29.56
-25.56
-19.66
-12.77
-5.78
0.55
5.91
10.24
13.56
15.92
17.25
17.62
17.25
16.50
15.70
15.04
14.52
14.07
13.65
13.24
12.89
12.70
12.66
12.70
12.70
12.63
12.52
12.35
12.05
11.43
10.40
9.06
7.70
6.53
5.61
4.74
3.73
2.47
1.05
-0.37
-1.64
-2.80
-4.04
-5.60
-7.72
-10.29
-13.03
-15.48
-17.27
-18.18
-18.09
-16.94
-14.70
-11.49
-7.59
-3.38
0.72
4.36
7.31
9.54
11.20
12.49
13.59
14.43
14.81
14.60
13.78
12.52
11.05
9.51
8.05
6.68
5.50
4.45
3.57
2.90
2.54
2.56
2.79
2.95
2.67
1.70
0.03
-2.08
-4.09
-5.59
-6.41
-6.78
-7.28
-8.41
-10.37
-13.00
-15.93
-18.86
-21.45
-23.40
-24.31
-23.78
-21.60
-17.89
-13.15
-8.10
-3.44
0.34
3.17
5.23
6.81
8.02
8.82
9.20
9.13
8.79
8.34
7.92
7.68
7.64
7.72
7.72
7.38
6.63
5.58
4.49
3.56
2.83
2.24
1.62
0.87
-0.16
-1.44
-2.92
-4.41
-5.71
-6.74
-7.53
-8.14
-8.73
-9.55
-10.91
-13.10
-16.12
-19.63
-22.96
-25.36
-26.17
-24.96
-21.74
-16.86
-11.07
-5.15
0.32
5.08
9.13
12.46
15.04
16.75
17.63
17.86
17.66
17.26
16.75
16.21
15.71
15.26
14.88
14.51
14.06
13.45
12.62
11.55
10.26
8.88
7.59
6.47
5.57
4.83
4.19
3.57
2.77
1.56
-0.17
-2.38
-4.74
-6.94
-8.72
-9.92
-10.58
-10.85
-11.10
-11.81
-13.43
-16.09
-19.62
-23.54
-27.19
-29.83
-30.79
-29.63
-26.26
-21.14
-15.00
-8.66
-2.78
2.29
6.36
9.45
11.69
13.15
13.92
14.15
14.18
14.34
14.91
15.81
16.79
17.50
17.69
17.38
16.72
15.94
15.20
14.55
13.90
13.12
12.08
10.77
9.33
7.90
6.56
5.23
3.93
2.72
1.80
1.20
0.82
0.50
0.02
-0.74
-1.83
-3.20
-4.65
-5.99
-6.98
-7.55
-7.78
-7.87
-8.12
-8.83
-10.22
-12.28
-14.71
-16.88
-18.12
-17.93
-16.29
-13.53
-10.16
-6.71
-3.50
-0.78
1.38
2.98
4.11
4.89
5.47
6.00
6.53
7.09
7.55
7.77
7.72
7.48
7.27
7.26
7.44
7.68
7.86
7.97
8.14
8.38
8.62
8.81
8.85
8.68
8.21
7.37
6.17
4.78
3.39
2.19
1.21
0.43
-0.20
-0.70
-1.17
-1.79
-2.71
-4.02
-5.71
-7.65
-9.55
-10.99
-11.56
-11.04
-9.56
-7.49
-5.16
-2.83
-0.56
1.55
3.37
4.79
5.75
6.28
6.41
6.25
5.90
5.49
5.15
4.89
4.59
4.16
3.52
2.69
1.75
0.74
-0.26
-1.23
-2.10
-2.90
-3.60
-4.20
-4.70
-5.05
-5.28
-5.42
-5.54
-5.67
-5.85
-6.27
-7.17
-8.73
-10.94
-13.47
-15.75
-17.25
-17.59
-16.63
-14.49
-11.44
-7.93
-4.38
-1.14
1.54
3.46
4.55
4.89
4.81
4.72
4.99
5.75
6.81
7.94
8.88
9.50
9.71
9.39
8.52
7.22
5.68
4.10
2.55
1.07
-0.38
-1.85
-3.39
-5.02
-6.68
-8.27
-9.74
-11.13
-12.57
-14.19
-16.15
-18.65
-21.90
-25.94
-30.33
-34.20
-36.34
-35.82
-32.32
-26.17
-18.26
-9.71
-1.58
5.36
10.81
14.79
17.57
19.32
20.13
20.08
19.34
18.17
16.88
15.74
14.93
14.43
14.06
13.55
12.63
11.30
9.72
8.26
7.09
6.23
5.45
4.49
3.13
1.21
-1.26
-4.05
-6.78
-9.06
-10.74
-11.95
-13.16
-14.86
-17.43
-21.07
-25.67
-30.89
-36.05
-40.21
-42.32
-41.58
-37.62
-30.77
-21.87
-12.17
-2.91
5.04
11.38
16.25
19.95
22.71
24.61
25.69
26.12
26.13
25.89
25.46
24.81
23.93
22.84
21.60
20.34
19.24
18.45
18.05
17.86
17.56
16.78
15.30
13.06
10.18
7.02
4.01
1.53
-0.28
-1.61
-2.80
-4.14
-5.73
-7.50
-9.32
-11.08
-12.74
-14.28
-15.74
-17.28
-19.06
-21.34
-24.26
-27.77
-31.53
-34.73
-36.36
-35.43
-31.52
-24.94
-16.66
-7.92
0.14
6.82
11.88
15.54
18.15
20.01
21.23
21.73
21.57
20.94
20.18
19.56
19.15
18.90
18.54
17.96
17.09
16.11
15.24
14.67
14.42
14.22
13.75
12.84
11.55
10.10
8.66
7.17
5.57
3.68
1.49
-0.97
-3.55
-6.03
-8.21
-9.91
-11.22
-12.34
-13.61
-15.39
-17.89
-21.16
-24.92
-28.47
-30.91
-31.33
-29.28
-24.83
-18.55
-11.26
-3.78
3.19
9.17
13.99
17.58
20.00
21.30
21.58
21.11
20.28
19.52
19.00
18.64
18.25
17.67
16.92
16.04
15.07
14.03
12.83
11.49
10.04
8.59
7.27
6.04
4.71
2.94
0.50
-2.57
-5.87
-8.87
-11.29
-13.08
-14.53
-16.10
-18.30
-21.48
-25.67
-30.46
-35.01
-38.30
-39.40
-37.71
-33.14
-26.14
-17.60
-8.60
-0.01
7.54
13.74
18.46
21.64
23.37
23.89
23.65
23.11
22.60
22.37
22.37
22.47
22.33
21.70
20.49
18.80
16.91
15.09
13.50
12.22
11.13
10.03
8.63
6.72
4.39
1.91
-0.34
-2.21
-3.81
-5.41
-7.28
-9.45
-11.84
-14.36
-16.90
-19.45
-21.98
-24.57
-27.37
-30.65
-34.74
-39.84
-45.89
-52.25
-57.79
-61.20
-61.38
-58.10
-52.08
-44.68
-37.42
-31.32
-26.86
-23.97
-22.34
-21.77
-22.11
-23.45
-25.83
-29.16
-33.16
-37.55
-42.21
-47.29
-53.01
-59.56
-66.87
-74.72
-82.71
-90.35
-97.05
-102.21
-105.27
-105.67
-102.87
-96.35
-85.71
-70.90
-52.23
-30.39
-6.30
18.97
44.24
68.29
90.00
108.34
122.54
132.06
136.75
136.92
133.35
127.08
119.17
110.42
101.47
92.67
84.20
76.00
67.77
59.15
49.88
40.05
30.24
21.52
15.22
12.30
13.01
16.63
21.75
26.97
31.29
34.42
36.46
37.58
37.93
37.49
36.33
34.62
32.72
31.10
30.02
29.48
29.07
28.24
26.68
24.44
21.95
19.69
17.99
16.97
16.55
16.52
16.58
16.46
15.99
15.07
13.74
12.03
10.10
8.22
6.70
5.78
5.40
5.30
5.12
4.54
3.43
1.77
-0.37
-2.76
-5.15
-7.25
-8.92
-10.15
-11.01
-11.70
-12.46
-13.65
-15.58
-18.25
-21.35
-24.20
-25.98
-26.03
-23.96
-19.87
-14.33
-8.27
-2.63
2.01
5.54
8.20
10.29
11.92
13.14
13.85
14.08
13.88
13.40
12.85
12.35
12.00
11.70
11.31
10.83
10.33
9.97
9.78
9.66
9.49
9.14
8.61
7.86
6.85
5.60
4.06
2.31
0.42
-1.52
-3.28
-4.71
-5.71
-6.41
-7.11
-8.09
-9.55
-11.56
-14.12
-17.08
-20.07
-22.49
-23.64
-23.05
-20.61
-16.58
-11.52
-6.03
-0.74
3.94
7.69
10.36
11.96
12.58
12.51
12.12
11.73
11.51
11.38
11.20
10.89
10.42
9.79
8.92
7.78
6.44
5.13
4.16
3.66
3.62
3.76
3.67
2.98
1.48
-0.71
-3.26
-5.68
-7.60
-8.89
-9.60
-10.03
-10.56
-11.73
-14.00
-17.52
-21.90
-26.22
-29.31
-30.14
-28.18
-23.63
-17.29
-10.35
-3.86
1.62
6.01
9.55
12.43
14.64
16.13
16.83
16.87
16.48
15.91
15.42
15.14
15.08
15.06
14.79
14.04
12.77
11.17
9.48
7.90
6.58
5.50
4.60
3.68
2.55
1.12
-0.62
-2.57
-4.61
-6.60
-8.39
-9.87
-10.98
-11.93
-13.03
-14.62
-16.98
-20.17
-24.08
-28.23
-31.82
-33.81
-33.31
-29.92
-23.96
-16.31
-8.14
-0.47
5.99
11.01
14.74
17.51
19.66
21.29
22.34
22.77
22.59
21.96
21.03
19.87
18.58
17.19
15.77
14.32
12.85
11.40
10.00
8.68
7.36
5.93
4.41
2.93
1.71
0.82
0.13
-0.62
-1.67
-3.12
-4.95
-7.00
-9.10
-11.18
-13.22
-15.33
-17.51
-19.78
-22.19
-24.89
-28.12
-31.82
-35.47
-38.07
-38.55
-36.21
-31.02
-23.66
-15.23
-6.83
0.71
7.00
12.03
15.94
18.81
20.67
21.61
21.85
21.77
21.63
21.56
21.47
21.11
20.30
18.89
16.98
14.84
12.82
11.22
10.04
9.08
8.11
6.96
5.66
4.33
3.10
2.09
1.28
0.54
-0.40
-1.79
-3.71
-5.96
-8.14
-9.92
-11.16
-11.91
-12.43
-13.06
-14.21
-16.18
-19.00
-22.33
-25.51
-27.75
-28.38
-26.94
-23.42
-18.17
-11.94
-5.61
0.17
5.01
8.91
11.90
14.09
15.51
16.22
16.33
15.93
15.23
14.36
13.49
12.65
11.73
10.64
9.39
8.10
6.94
5.98
5.31
4.97
4.98
5.24
5.49
5.44
4.88
3.77
2.25
0.50
-1.25
-2.81
-4.08
-5.12
-6.14
-7.31
-8.89
-11.02
-13.83
-17.19
-20.61
-23.37
-24.56
-23.71
-20.70
-15.99
-10.31
-4.44
0.95
5.44
8.92
11.43
13.11
14.07
14.36
14.14
13.60
12.95
12.32
11.66
11.00
10.26
9.47
8.58
7.57
6.45
5.29
4.19
3.18
2.15
0.98
-0.46
-2.15
-4.02
-5.90
-7.56
-8.87
-9.84
-10.83
-12.33
-14.79
-18.35
-22.65
-26.89
-30.02
-31.04
-29.42
-25.28
-19.38
-12.65
-5.93
0.32
5.90
10.64
14.38
16.88
18.06
18.01
17.01
15.57
14.15
13.08
12.37
11.78
10.98
9.76
8.17
6.43
4.84
3.72
3.20
3.14
3.12
2.62
1.30
-0.90
-3.61
-6.39
-8.80
-10.54
-11.67
-12.51
-13.68
-15.84
-19.38
-24.27
-29.94
-35.50
-39.83
-41.93
-41.13
-37.23
-30.72
-22.57
-13.85
-5.53
1.81
7.87
12.60
16.19
18.88
20.91
22.36
23.17
23.40
23.16
22.74
22.31
21.92
21.47
20.71
19.48
17.65
15.33
12.86
10.64
9.03
8.03
7.32
6.44
4.97
2.72
-0.28
-3.80
-7.41
-10.75
-13.56
-15.84
-17.89
-19.97
-22.47
-25.62
-29.64
-34.42
-39.41
-43.64
-45.88
-45.17
-41.15
-34.17
-25.19
-15.43
-6.01
2.27
9.13
14.59
18.87
22.06
24.17
25.27
25.47
25.05
24.20
23.07
21.80
20.45
19.08
17.68
16.20
14.72
13.30
12.06
10.92
9.75
8.48
7.09
5.72
4.43
3.16
1.82
0.23
-1.65
-3.79
-6.07
-8.23
-10.09
-11.54
-12.82
-14.27
-16.20
-18.82
-22.10
-25.86
-29.63
-32.63
-33.94
-32.76
-28.72
-22.12
-13.84
-5.03
3.21
10.05
15.13
18.51
20.46
21.38
21.55
21.14
20.33
19.34
18.40
17.63
17.02
16.50
15.91
15.18
14.22
12.99
11.63
10.32
9.28
8.56
8.04
7.44
6.47
4.93
2.77
0.14
-2.62
-5.05
-6.80
-7.83
-8.40
-8.91
-9.78
-11.33
-13.82
-17.33
-21.56
-25.80
-29.02
-30.29
-29.02
-25.20
-19.33
-12.27
-5.00
1.62
7.10
11.25
14.17
16.02
17.00
17.41
17.51
17.53
17.50
17.31
16.86
16.01
14.79
13.20
11.40
9.61
8.06
6.88
5.96
5.07
3.97
2.45
0.46
-1.97
-4.64
-7.25
-9.47
-11.09
-12.23
-13.24
-14.65
-16.92
-20.29
-24.57
-29.01
-32.53
-34.00
-32.70
-28.49
-21.82
-13.59
-4.85
3.38
10.32
15.61
19.23
21.37
22.37
22.48
22.05
21.37
20.70
20.09
19.45
18.62
17.45
15.94
14.16
12.27
10.55
9.21
8.32
7.66
6.82
5.46
3.44
0.88
-1.92
-4.69
-7.18
-9.33
-11.22
-13.19
-15.67
-19.03
-23.45
-28.63
-33.85
-38.02
-39.83
-38.28
-33.06
-24.85
-15.04
-5.14
3.68
10.93
16.63
20.98
24.19
26.31
27.37
27.43
26.73
25.67
24.69
24.01
23.48
22.64
21.15
18.86
16.08
13.28
10.90
9.21
8.23
7.73
7.33
6.67
5.56
3.92
1.88
-0.47
-2.96
-5.37
-7.49
-9.18
-10.56
-11.93
-13.63
-15.97
-19.15
-23.26
-28.20
-33.41
-37.93
-40.54
-40.22
-36.60
-30.01
-21.44
-12.13
-3.20
4.65
11.24
16.59
20.84
23.97
25.97
26.95
27.20
27.12
26.94
26.65
26.13
25.21
23.86
22.14
20.26
18.51
17.15
16.33
15.96
15.70
15.24
14.33
12.94
11.15
9.16
7.25
5.68
4.53
3.66
2.69
1.31
-0.67
-3.15
-5.91
-8.65
-11.10
-13.11
-14.72
-16.23
-18.12
-20.79
-24.55
-29.30
-34.59
-39.51
-42.79
-43.25
-40.11
-33.56
-24.59
-14.58
-4.88
3.65
10.66
16.12
20.20
23.04
24.70
25.19
24.63
23.38
21.95
20.82
20.17
19.82
19.48
18.83
17.82
16.54
15.25
14.30
13.92
14.12
14.62
14.99
14.90
14.17
12.93
11.33
9.56
7.80
6.17
4.72
3.36
1.89
0.22
-1.74
-3.87
-6.10
-8.26
-10.14
-11.60
-12.58
-13.20
-13.76
-14.52
-15.79
-17.75
-20.52
-23.93
-27.40
-30.04
-30.84
-29.17
-25.02
-18.92
-11.84
-4.78
1.46
6.43
10.11
12.67
14.45
15.61
16.27
16.53
16.53
16.44
16.31
16.09
15.68
14.97
13.93
12.50
10.70
8.71
6.78
5.20
4.08
3.37
2.96
2.72
2.62
2.57
2.51
2.38
2.08
1.52
0.53
-0.99
-2.94
-5.08
-7.05
-8.62
-9.77
-10.57
-11.27
-12.16
-13.53
-15.53
-17.95
-20.17
-21.36
-20.78
-18.11
-13.60
-8.02
-2.33
2.61
6.36
8.91
10.53
11.52
12.02
12.16
12.08
11.95
11.93
11.94
11.81
11.38
10.56
9.44
8.14
6.85
5.75
4.90
4.32
3.89
3.48
2.98
2.25
1.18
-0.29
-2.06
-3.86
-5.34
-6.31
-6.75
-6.92
-7.20
-7.96
-9.56
-11.99
-15.02
-18.11
-20.61
-21.93
-21.61
-19.45
-15.63
-10.65
-5.30
-0.34
3.78
6.94
9.29
10.92
11.91
12.26
12.00
11.30
10.41
9.64
9.18
8.97
8.78
8.31
7.51
6.52
5.64
5.02
4.62
4.22
3.64
2.81
1.67
0.31
-1.22
-2.92
-4.72
-6.53
-8.16
-9.41
-10.35
-11.33
-12.90
-15.36
-18.47
-21.46
-23.26
-23.08
-20.65
-16.32
-10.85
-5.08
0.24
4.74
8.28
10.89
12.62
13.47
13.56
13.08
12.40
11.80
11.45
11.43
11.62
11.86
11.87
11.41
10.42
9.01
7.45
6.00
4.81
3.88
3.07
2.24
1.17
-0.24
-1.91
-3.60
-5.05
-6.17
-7.11
-8.12
-9.53
-11.58
-14.46
-18.15
-22.30
-26.25
-29.15
-30.25
-29.13
-25.72
-20.42
-13.89
-7.01
-0.55
5.05
9.61
13.24
16.04
18.00
19.13
19.46
19.20
18.59
17.90
17.39
17.15
17.13
17.09
16.79
16.16
15.30
14.41
13.60
12.82
11.97
10.93
9.73
8.40
6.96
5.48
3.97
2.44
0.79
-1.12
-3.37
-5.91
-8.56
-11.06
-13.15
-14.60
-15.34
-15.58
-15.85
-16.83
-19.00
-22.44
-26.68
-30.93
-34.17
-35.47
-34.20
-30.27
-24.19
-16.86
-9.30
-2.29
3.73
8.62
12.42
15.25
17.27
18.54
19.15
19.26
19.11
18.97
19.00
19.11
19.11
18.79
18.08
17.06
15.89
14.74
13.69
12.78
11.98
11.17
10.33
9.41
8.42
7.31
6.04
4.70
3.43
2.43
1.75
1.23
0.59
-0.39
-1.75
-3.44
-5.35
-7.38
-9.40
-11.24
-12.74
-13.83
-14.53
-14.97
-15.44
-16.29
-17.91
-20.53
-24.02
-27.85
-31.18
-33.08
-32.80
-30.03
-25.02
-18.56
-11.63
-5.13
0.42
4.92
8.47
11.20
13.17
14.42
15.05
15.25
15.21
15.13
15.21
15.55
16.11
16.65
16.86
16.55
15.81
14.94
14.24
13.79
13.54
13.28
12.80
11.95
10.71
9.23
7.73
6.43
5.40
4.53
3.67
2.67
1.38
-0.27
-2.23
-4.35
-6.40
-8.22
-9.78
-11.13
-12.36
-13.65
-15.27
-17.56
-20.68
-24.29
-27.59
-29.52
-29.26
-26.60
-21.99
-16.27
-10.37
-5.03
-0.61
2.86
5.58
7.80
9.64
11.10
12.15
12.76
12.98
12.92
12.72
12.51
12.36
12.14
11.62
10.57
8.94
7.00
5.19
3.87
3.19
3.05
3.17
3.21
2.80
1.74
0.14
-1.67
-3.29
-4.53
-5.39
-6.04
-6.65
-7.32
-8.21
-9.54
-11.48
-14.11
-17.17
-20.18
-22.47
-23.33
-22.28
-19.28
-14.81
-9.65
-4.58
-0.12
3.46
6.11
7.90
9.02
9.72
10.22
10.63
10.93
11.10
11.10
10.93
10.55
9.92
8.98
7.81
6.55
5.34
4.32
3.55
3.01
2.58
2.02
1.11
-0.24
-1.91
-3.66
-5.30
-6.80
-8.23
-9.85
-11.92
-14.69
-18.28
-22.41
-26.49
-29.66
-31.15
-30.41
-27.27
-21.96
-15.08
-7.53
-0.21
6.11
11.00
14.38
16.47
17.69
18.45
19.02
19.41
19.44
19.03
18.28
17.48
16.87
16.42
15.84
14.79
13.06
10.74
8.18
5.82
4.06
2.99
2.41
1.83
0.83
-0.78
-2.86
-5.10
-7.21
-9.09
-10.80
-12.38
-13.86
-15.23
-16.61
-18.31
-20.72
-24.16
-28.58
-33.27
-37.05
-38.61
-37.13
-32.57
-25.60
-17.37
-8.96
-1.21
5.43
10.84
15.08
18.27
20.45
21.61
21.90
21.66
21.39
21.41
21.78
22.22
22.38
22.00
21.02
19.57
17.86
16.14
14.54
13.11
11.84
10.77
9.98
9.40
8.87
8.11
6.97
5.51
3.94
2.53
1.40
0.60
-0.00
-0.62
-1.54
-3.01
-5.10
-7.66
-10.34
-12.84
-14.94
-16.59
-17.95
-19.28
-20.96
-23.25
-26.31
-30.06
-34.18
-38.11
-40.97
-41.81
-39.88
-35.00
-27.73
-19.13
-10.39
-2.44
4.18
9.31
13.05
15.65
17.37
18.50
19.23
19.78
20.32
20.98
21.76
22.47
22.96
23.05
22.70
21.92
20.80
19.52
18.32
17.43
16.87
16.56
16.30
15.84
15.03
13.76
12.13
10.36
8.68
7.17
5.73
4.20
2.52
0.73
-1.01
-2.62
-4.11
-5.52
-6.93
-8.35
-9.77
-11.11
-12.33
-13.56
-15.14
-17.51
-20.81
-24.70
-28.28
-30.46
-30.37
-27.70
-22.84
-16.67
-10.18
-4.13
1.13
5.49
8.99
11.57
13.31
14.32
14.88
15.28
15.64
15.99
16.29
16.50
16.60
16.51
16.14
15.45
14.41
13.10
11.68
10.30
9.08
8.08
7.16
6.09
4.74
3.09
1.26
-0.57
-2.27
-3.76
-4.98
-5.95
-6.80
-7.74
-8.99
-10.81
-13.33
-16.55
-20.28
-23.89
-26.57
-27.49
-26.23
-22.89
-18.02
-12.42
-6.76
-1.55
2.94
6.65
9.64
11.98
13.66
14.70
15.15
15.17
14.93
14.54
14.03
13.37
12.48
11.27
9.74
8.01
6.38
5.21
4.67
4.61
4.65
4.37
3.49
1.99
0.02
-2.12
-4.12
-5.77
-7.09
-8.22
-9.33
-10.64
-12.37
-14.80
-18.26
-22.74
-27.79
-32.43
-35.41
-35.66
-32.63
-26.62
-18.63
-10.05
-2.12
4.49
9.65
13.65
16.70
18.91
20.28
20.85
20.79
20.31
19.64
18.98
18.41
17.93
17.38
16.58
15.44
14.01
12.47
11.04
9.81
8.87
8.19
7.65
7.06
6.21
5.06
3.64
2.10
0.49
-1.21
-3.03
-4.98
-6.98
-8.95
-10.85
-12.59
-14.19
-15.71
-17.48
-19.92
-23.31
-27.59
-32.15
-36.01
-38.00
-37.21
-33.35
-26.82
-18.72
-10.32
-2.58
4.07
9.64
14.28
17.99
20.69
22.27
22.82
22.59
21.94
21.28
20.81
20.54
20.25
19.66
18.72
17.53
16.38
15.50
15.00
14.82
14.81
14.79
14.51
13.78
12.57
11.03
9.48
8.18
7.25
6.69
6.32
5.90
5.09
3.67
1.59
-0.97
-3.69
-6.27
-8.57
-10.43
-11.86
-12.89
-13.80
-15.05
-17.09
-20.21
-24.32
-28.89
-32.98
-35.46
-35.35
-32.25
-26.56
-19.33
-11.85
-5.15
0.31
4.49
7.70
10.27
12.40
14.11
15.24
15.67
15.51
15.07
14.75
14.73
14.94
15.15
15.10
14.68
13.96
13.10
12.36
11.93
11.81
11.80
11.61
11.08
10.26
9.36
8.59
8.01
7.63
7.34
7.01
6.41
5.41
4.00
2.30
0.56
-1.06
-2.47
-3.65
-4.65
-5.64
-6.93
-8.81
-11.40
-14.51
-17.61
-20.06
-21.31
-20.96
-18.97
-15.52
-11.10
-6.30
-1.59
2.65
6.23
9.01
10.90
11.96
12.35
12.35
12.18
11.96
11.72
11.49
11.25
10.94
10.48
9.83
9.05
8.26
7.55
6.98
6.54
6.18
5.80
5.19
4.16
2.62
0.66
-1.46
-3.46
-5.11
-6.21
-6.67
-6.60
-6.38
-6.54
-7.57
-9.80
-13.15
-17.18
-21.04
-23.72
-24.38
-22.71
-19.02
-14.04
-8.63
-3.46
1.11
4.91
7.94
10.25
11.90
12.91
13.27
13.12
12.70
12.28
12.06
11.99
11.91
11.55
10.69
9.22
7.25
5.13
3.30
2.11
1.56
1.37
1.16
0.63
-0.30
-1.58
-3.10
-4.72
-6.28
-7.66
-8.89
-10.10
-11.53
-13.47
-16.21
-19.86
-24.18
-28.41
-31.49
-32.35
-30.44
-25.94
-19.57
-12.41
-5.48
0.49
5.20
8.71
11.30
13.24
14.65
15.48
15.74
15.52
15.08
14.67
14.40
14.30
14.29
14.22
13.88
13.13
12.01
10.67
9.36
8.25
7.39
6.71
6.03
5.23
4.09
2.51
0.57
-1.57
-3.67
-5.57
-7.26
-8.72
-10.01
-11.22
-12.71
-14.93
-18.25
-22.67
-27.58
-32.00
-34.77
-34.95
-32.19
-26.86
-19.88
-12.36
-5.16
1.16
6.42
10.56
13.69
15.95
17.52
18.59
19.21
19.43
19.32
18.99
18.53
18.00
17.40
16.65
15.68
14.42
12.85
11.12
9.47
8.15
7.23
6.57
5.95
5.15
4.06
2.63
0.90
-1.02
-3.03
-5.00
-6.84
-8.56
-10.07
-11.33
-12.31
-13.14
-14.15
-15.62
-17.82
-20.71
-24.05
-27.30
-29.66
-30.35
-28.79
-24.92
-19.19
-12.38
-5.34
1.22
6.84
11.25
14.52
16.80
18.35
19.32
19.77
19.77
19.38
18.67
17.64
16.26
14.65
12.98
11.53
10.47
9.81
9.43
9.12
8.70
8.00
6.97
5.72
4.42
3.24
2.21
1.21
0.18
-0.89
-1.89
-2.70
-3.34
-3.87
-4.46
-5.24
-6.43
-8.20
-10.52
-13.26
-16.03
-18.43
-20.03
-20.39
-19.30
-16.68
-12.84
-8.29
-3.57
0.85
4.64
7.53
9.42
10.37
10.62
10.47
10.18
9.88
9.62
9.39
9.21
9.01
8.69
8.24
7.67
7.11
6.62
6.32
6.18
6.08
5.85
5.24
4.17
2.73
1.11
-0.48
-2.03
-3.53
-4.96
-6.30
-7.59
-9.12
-11.22
-14.18
-17.94
-22.04
-25.63
-27.73
-27.54
-24.79
-19.82
-13.48
-6.74
-0.46
4.89
9.07
12.07
14.02
15.07
15.44
15.25
14.68
13.88
12.99
12.11
11.21
10.24
9.13
7.86
6.47
4.95
3.42
2.05
0.99
0.23
-0.44
-1.34
-2.71
-4.59
-6.80
-9.09
-11.11
-12.60
-13.48
-13.95
-14.58
-15.93
-18.44
-22.08
-26.29
-30.05
-32.13
-31.59
-28.10
-22.20
-14.94
-7.47
-0.63
5.22
10.00
13.73
16.46
18.19
19.02
19.08
18.62
17.88
17.11
16.50
16.08
15.78
15.38
14.56
13.07
10.84
8.20
5.79
4.27
3.95
4.53
5.32
5.55
4.77
2.99
0.56
-2.01
-4.32
-6.25
-7.87
-9.47
-11.31
-13.48
-16.06
-19.13
-22.72
-26.68
-30.52
-33.38
-34.32
-32.55
-27.88
-20.88
-12.71
-4.75
2.03
7.33
11.36
14.52
16.97
18.70
19.66
19.96
19.94
19.86
19.84
19.77
19.37
18.42
16.90
15.04
13.19
11.65
10.43
9.40
8.42
7.44
6.50
5.62
4.71
3.67
2.46
1.10
-0.31
-1.72
-3.10
-4.47
-5.90
-7.43
-9.03
-10.50
-11.64
-12.36
-12.90
-13.81
-15.57
-18.37
-21.79
-25.02
-27.02
-26.93
-24.40
-19.66
-13.57
-7.18
-1.37
3.42
7.17
10.09
12.36
14.14
15.47
16.40
16.94
17.20
17.28
17.16
16.76
15.89
14.53
12.87
11.23
9.92
9.04
8.61
8.55
8.88
9.49
10.19
10.65
10.50
9.53
7.72
5.27
2.62
0.21
-1.66
-2.97
-3.98
-5.00
-6.33
-8.14
-10.44
-13.11
-15.77
-17.97
-19.19
-19.10
-17.64
-14.93
-11.32
-7.25
-3.19
0.44
3.42
5.71
7.43
8.69
9.56
10.18
10.61
10.92
11.08
10.98
10.60
9.94
9.10
8.14
7.09
6.06
5.16
4.54
4.15
3.77
3.20
2.25
0.97
-0.50
-1.95
-3.18
-4.10
-4.76
-5.47
-6.69
-8.73
-11.79
-15.66
-19.92
-23.85
-26.59
-27.43
-25.99
-22.49
-17.62
-12.16
-6.81
-1.95
2.24
5.70
8.49
10.61
12.07
12.87
13.06
12.87
12.55
12.34
12.19
11.88
11.23
10.18
8.95
7.78
6.90
6.38
6.07
5.69
4.90
3.51
1.54
-0.77
-3.06
-5.10
-6.82
-8.14
-9.15
-9.98
-10.98
-12.65
-15.35
-19.20
-23.75
-28.18
-31.46
-32.60
-31.15
-27.20
-21.49
-15.02
-8.60
-2.71
2.49
6.95
10.59
13.37
15.27
16.36
16.79
16.74
16.49
16.27
16.26
16.34
16.27
15.80
14.77
13.33
11.74
10.30
9.24
8.55
7.98
7.09
5.58
3.43
0.86
-1.69
-3.96
-5.85
-7.32
-8.44
-9.33
-10.28
-11.77
-14.24
-17.91
-22.49
-27.21
-30.95
-32.53
-31.26
-27.11
-20.89
-13.75
-6.76
-0.56
4.75
9.27
13.05
16.09
18.30
19.59
20.00
19.66
18.92
18.13
17.58
17.29
17.03
16.60
15.81
14.62
13.12
11.46
9.92
8.66
7.76
7.05
6.21
4.99
3.26
1.14
-1.17
-3.45
-5.42
-6.92
-7.92
-8.58
-9.20
-10.08
-11.51
-13.57
-16.27
-19.38
-22.34
-24.44
-24.93
-23.41
-19.94
-14.97
-9.20
-3.35
2.01
6.52
10.05
12.64
14.45
15.57
16.09
16.03
15.51
14.72
13.86
13.06
12.37
11.75
11.15
10.53
9.87
9.25
8.76
8.50
8.35
8.07
7.44
6.32
4.77
2.94
1.03
-0.77
-2.31
-3.54
-4.52
-5.48
-6.59
-7.96
-9.63
-11.65
-14.16
-17.08
-20.10
-22.57
-23.75
-23.11
-20.52
-16.37
-11.32
-6.15
-1.49
2.36
5.32
7.44
8.79
9.39
9.43
9.17
8.91
8.82
8.87
8.94
8.89
8.68
8.38
8.02
7.70
7.43
7.25
7.06
6.67
5.97
4.81
3.23
1.22
-1.06
-3.38
-5.42
-6.87
-7.70
-8.24
-9.04
-10.70
-13.44
-17.03
-20.71
-23.44
-24.33
-23.01
-19.73
-15.23
-10.23
-5.25
-0.47
3.92
7.70
10.67
12.73
14.03
14.79
15.14
15.12
14.59
13.49
11.88
10.04
8.32
7.02
6.22
5.70
5.11
4.25
3.04
1.59
-0.05
-1.89
-3.87
-5.87
-7.63
-8.97
-9.91
-10.66
-11.68
-13.42
-16.26
-20.16
-24.58
-28.54
-30.85
-30.65
-27.65
-22.14
-14.95
-7.17
0.17
6.26
10.79
13.87
15.88
17.17
18.01
18.56
18.89
19.07
19.10
18.93
18.48
17.59
16.13
14.03
11.49
8.97
6.94
5.71
5.09
4.63
3.77
2.13
-0.29
-3.23
-6.21
-8.79
-10.71
-12.02
-13.09
-14.37
-16.33
-19.28
-23.23
-27.89
-32.44
-35.84
-37.04
-35.38
-30.85
-23.93
-15.53
-6.66
1.76
9.04
14.89
19.28
22.37
24.33
25.26
25.38
24.90
24.16
23.40
22.76
22.23
21.68
20.96
19.90
18.41
16.68
14.97
13.55
12.48
11.58
10.59
9.35
7.85
6.17
4.41
2.58
0.63
-1.53
-3.96
-6.53
-8.94
-10.92
-12.38
-13.56
-14.93
-16.95
-19.96
-23.94
-28.52
-32.87
-35.87
-36.49
-34.11
-28.91
-21.68
-13.51
-5.40
1.98
8.37
13.69
17.89
20.88
22.58
23.26
23.39
23.44
23.61
23.67
23.23
22.06
20.25
18.20
16.36
15.00
14.18
13.73
13.40
12.95
12.22
11.21
9.94
8.57
7.28
6.24
5.46
4.81
3.98
2.73
1.03
-1.05
-3.28
-5.55
-7.75
-9.80
-11.67
-13.40
-15.20
-17.29
-19.81
-22.60
-25.17
-26.84
-26.88
-24.87
-20.87
-15.46
-9.48
-3.74
1.31
5.58
9.13
12.06
14.36
15.98
16.98
17.50
17.82
18.16
18.52
18.71
18.31
17.16
15.37
13.35
11.61
10.33
9.45
8.77
8.09
7.42
6.83
6.40
6.12
5.77
5.04
3.62
1.55
-0.85
-3.03
-4.62
-5.59
-6.24
-7.08
-8.60
-11.06
-14.40
-18.13
-21.50
-23.66
-24.08
-22.54
-19.27
-14.73
-9.48
-4.12
0.93
5.36
8.96
11.57
13.14
13.81
13.97
14.04
14.30
14.71
15.08
15.17
14.88
14.21
13.16
11.77
10.10
8.29
6.51
4.91
3.56
2.43
1.41
0.27
-1.12
-2.74
-4.45
-6.03
-7.32
-8.22
-8.81
-9.33
-10.20
-11.87
-14.51
-17.83
-21.07
-23.25
-23.65
-21.95
-18.36
-13.44
-7.91
-2.41
2.58
6.87
10.34
12.95
14.66
15.59
16.01
16.28
16.66
17.17
17.64
17.79
17.38
16.27
14.54
12.41
10.20
8.29
6.88
6.10
5.87
5.92
5.79
5.02
3.40
1.08
-1.46
-3.71
-5.35
-6.35
-6.89
-7.22
-7.58
-8.29
-9.65
-11.96
-15.33
-19.43
-23.55
-26.56
-27.41
-25.46
-20.89
-14.63
-7.87
-1.71
3.30
7.05
9.72
11.67
13.17
14.35
15.20
15.62
15.62
15.29
14.83
14.40
14.02
13.66
13.17
12.42
11.30
9.75
7.98
6.29
5.03
4.33
4.04
3.88
3.48
2.67
1.38
-0.28
-2.10
-3.90
-5.51
-6.96
-8.35
-9.72
-11.16
-12.76
-14.77
-17.44
-20.74
-24.25
-27.16
-28.59
-27.89
-24.88
-19.91
-13.68
-7.12
-1.02
4.14
8.18
11.16
13.14
14.20
14.50
14.31
14.01
13.84
13.87
14.07
14.30
14.41
14.24
13.76
13.06
12.27
11.55
10.80
9.86
8.58
7.00
5.34
3.87
2.75
1.98
1.46
1.01
0.32
-0.81
-2.54
-4.79
-7.23
-9.48
-11.23
-12.33
-12.90
-13.26
-13.94
-15.42
-17.92
-21.11
-24.21
-26.19
-26.24
-24.02
-19.77
-14.15
-8.05
-2.30
2.65
6.64
9.80
12.28
14.10
15.32
16.00
16.31
16.35
16.12
15.53
14.61
13.48
12.31
11.22
10.17
9.04
7.67
6.12
4.60
3.46
2.94
3.03
3.43
3.66
3.28
2.10
0.19
-2.11
-4.35
-6.12
-7.20
-7.69
-7.99
-8.53
-9.65
-11.45
-13.81
-16.38
-18.71
-20.28
-20.62
-19.47
-16.82
-12.88
-8.11
-3.07
1.61
5.45
8.27
10.17
11.45
12.32
12.91
13.24
13.38
13.40
13.28
12.89
11.97
10.44
8.46
6.45
4.93
4.23
4.41
5.14
5.86
5.97
5.18
3.54
1.41
-0.81
-2.78
-4.26
-5.22
-5.79
-6.30
-7.15
-8.62
-10.78
-13.49
-16.53
-19.62
-22.42
-24.33
-24.71
-23.05
-19.35
-14.22
-8.62
-3.53
0.53
3.61
6.11
8.42
10.59
12.30
13.17
13.16
12.60
12.07
11.95
12.24
12.52
12.30
11.25
9.41
7.25
5.37
4.18
3.71
3.58
3.36
2.76
1.77
0.54
-0.73
-1.93
-3.08
-4.23
-5.43
-6.71
-8.02
-9.46
-11.23
-13.66
-16.96
-20.87
-24.59
-27.00
-27.20
-24.87
-20.39
-14.57
-8.27
-2.10
3.57
8.56
12.65
15.70
17.57
18.31
18.24
17.71
17.03
16.28
15.38
14.41
13.53
13.02
12.86
12.82
12.54
11.72
10.43
8.92
7.47
6.27
5.27
4.32
3.19
1.72
-0.08
-1.95
-3.60
-4.77
-5.48
-5.91
-6.34
-7.10
-8.53
-10.90
-14.28
-18.51
-23.18
-27.68
-31.25
-33.06
-32.50
-29.34
-23.92
-17.09
-9.84
-3.07
2.70
7.17
10.31
12.31
13.43
14.03
14.35
14.52
14.70
14.95
15.30
15.60
15.65
15.32
14.58
13.57
12.43
11.31
10.38
9.72
9.33
9.04
8.59
7.76
6.48
4.82
2.86
0.70
-1.54
-3.73
-5.67
-7.29
-8.65
-9.98
-11.53
-13.56
-16.26
-19.69
-23.69
-27.77
-31.14
-32.95
-32.54
-29.69
-24.70
-18.29
-11.34
-4.71
1.07
5.79
9.57
12.55
14.77
16.20
16.87
16.93
16.65
16.26
15.88
15.57
15.31
15.01
14.55
13.78
12.76
11.71
10.85
10.32
10.01
9.77
9.44
8.96
8.30
7.42
6.34
5.08
3.75
2.40
1.13
-0.02
-1.04
-2.08
-3.37
-5.10
-7.33
-9.95
-12.75
-15.50
-17.90
-19.49
-19.83
-18.62
-15.97
-12.26
-8.02
-3.80
0.08
3.42
6.19
8.40
10.06
11.12
11.49
11.29
10.73
10.14
9.76
9.61
9.64
9.70
9.69
9.47
9.00
8.35
7.68
7.13
6.70
6.21
5.47
4.32
2.81
1.06
-0.70
-2.17
-3.16
-3.62
-3.78
-4.03
-4.79
-6.39
-8.97
-12.43
-16.25
-19.69
-21.96
-22.49
-21.22
-18.46
-14.69
-10.43
-6.09
-2.03
1.49
4.27
6.25
7.45
8.02
8.22
8.35
8.60
9.08
9.63
10.04
10.13
9.82
9.13
8.16
7.13
6.28
5.74
5.36
4.82
3.80
2.23
0.28
-1.75
-3.58
-5.06
-6.15
-6.94
-7.65
-8.61
-10.18
-12.59
-15.87
-19.64
-23.09
-25.20
-25.14
-22.62
-18.07
-12.36
-6.41
-0.87
3.89
7.69
10.52
12.44
13.65
14.33
14.65
14.68
14.48
14.04
13.32
12.29
10.98
9.51
8.05
6.66
5.40
4.30
3.35
2.53
1.70
0.66
-0.64
-2.13
-3.61
-4.94
-6.07
-7.07
-8.17
-9.66
-11.93
-15.17
-19.20
-23.47
-27.03
-28.97
-28.65
-25.88
-21.01
-14.82
-8.31
-2.39
2.45
6.11
8.80
10.74
12.07
12.94
13.51
14.03
14.66
15.36
15.94
16.04
15.44
14.02
12.01
9.84
8.02
6.87
6.31
5.96
5.33
4.11
2.22
-0.22
-2.99
-5.77
-8.26
-10.28
-11.93
-13.57
-15.68
-18.70
-22.73
-27.51
-32.29
-36.05
-37.71
-36.49
-32.32
-25.67
-17.49
-8.92
-0.93
5.73
10.81
14.45
17.02
18.81
19.91
20.36
20.22
19.71
19.08
18.49
18.02
17.57
16.97
16.06
14.72
12.98
11.05
9.23
7.71
6.46
5.30
3.96
2.24
0.01
-2.61
-5.37
-7.97
-10.23
-12.16
-13.90
-15.59
-17.45
-19.77
-22.87
-26.80
-31.20
-35.28
-37.95
-38.30
-35.77
-30.41
-22.86
-14.10
-5.24
2.83
9.54
14.73
18.47
20.91
22.28
22.82
22.82
22.49
21.97
21.43
20.92
20.44
19.83
18.87
17.44
15.59
13.60
11.78
10.41
9.62
9.35
9.33
9.11
8.22
6.41
3.77
0.72
-2.26
-4.79
-6.68
-7.95
-8.80
-9.60
-10.78
-12.66
-15.48
-19.21
-23.58
-27.92
-31.23
-32.40
-30.66
-25.99
-19.11
-11.21
-3.45
3.42
9.05
13.50
16.93
19.50
21.26
22.15
22.14
21.44
20.42
19.46
18.76
18.28
17.84
17.25
16.35
15.06
13.36
11.48
9.71
8.39
7.56
6.97
6.17
4.81
2.82
0.37
-2.13
-4.24
-5.70
-6.55
-7.16
-8.04
-9.57
-11.92
-14.97
-18.53
-22.23
-25.52
-27.66
-27.95
-26.04
-22.03
-16.47
-10.08
-3.54
2.60
7.96
12.39
15.78
18.08
19.22
19.19
18.25
16.86
15.50
14.49
13.85
13.42
13.00
12.42
11.56
10.39
9.01
7.67
6.58
5.81
5.26
4.73
3.98
2.82
1.17
-0.91
-3.14
-5.17
-6.70
-7.71
-8.39
-9.06
-10.03
-11.47
-13.58
-16.34
-19.56
-22.70
-24.91
-25.37
-23.51
-19.35
-13.46
-6.76
-0.29
5.18
9.28
12.15
14.14
15.58
16.61
17.23
17.38
17.13
16.58
15.83
15.00
14.18
13.46
12.86
12.31
11.67
10.93
10.15
9.52
9.19
9.18
9.44
9.83
10.09
9.90
9.00
7.41
5.38
3.25
1.29
-0.45
-2.00
-3.44
-4.86
-6.40
-8.31
-10.84
-14.11
-18.06
-22.33
-26.27
-28.98
-29.61
-27.65
-23.33
-17.39
-10.93
-4.88
0.24
4.28
7.45
9.98
12.10
13.85
15.16
16.04
16.61
17.06
17.45
17.65
17.44
16.70
15.53
14.23
13.07
12.24
11.80
11.62
11.47
11.04
10.17
8.89
7.45
6.20
5.36
5.03
5.00
4.95
4.41
3.03
0.77
-2.16
-5.24
-8.04
-10.26
-11.74
-12.55
-12.91
-13.30
-14.30
-16.34
-19.48
-23.31
-27.04
-29.71
-30.53
-29.15
-25.77
-21.06
-15.76
-10.43
-5.46
-1.04
2.62
5.41
7.41
8.88
10.14
11.35
12.53
13.54
14.20
14.43
14.21
13.67
12.98
12.27
11.59
10.87
10.13
9.44
8.87
8.43
8.01
7.54
7.00
6.42
5.84
5.25
4.62
3.87
2.92
1.67
0.10
-1.63
-3.23
-4.43
-5.14
-5.52
-5.83
-6.39
-7.43
-9.11
-11.46
-14.26
-17.03
-19.05
-19.71
-18.70
-16.15
-12.56
-8.53
-4.51
-0.80
2.55
5.56
8.24
10.48
12.15
13.22
13.85
14.23
14.46
14.49
14.10
13.17
11.74
9.94
7.94
5.89
3.98
2.44
1.45
1.03
1.00
1.06
0.93
0.39
-0.66
-2.15
-3.77
-5.09
-5.79
-5.83
-5.42
-4.99
-4.98
-5.75
-7.49
-10.13
-13.29
-16.40
-18.80
-20.01
-19.73
-17.91
-14.85
-11.07
-7.21
-3.75
-0.90
1.39
3.27
4.75
5.81
6.45
6.80
7.09
7.43
7.87
8.25
8.38
8.10
7.37
6.46
5.70
5.41
5.64
6.16
6.63
6.74
6.35
5.40
3.95
2.15
0.23
-1.57
-3.11
-4.39
-5.54
-6.76
-8.32
-10.50
-13.43
-16.87
-20.20
-22.56
-23.25
-21.95
-18.82
-14.41
-9.45
-4.65
-0.45
2.96
5.60
7.57
8.91
9.69
10.04
10.18
10.33
10.57
10.90
11.22
11.40
11.29
10.68
9.56
8.11
6.64
5.46
4.64
4.10
3.60
2.92
1.88
0.38
-1.47
-3.49
-5.40
-6.98
-8.16
-8.87
-9.25
-9.59
-10.37
-12.05
-14.82
-18.39
-22.00
-24.71
-25.60
-24.21
-20.60
-15.36
-9.40
-3.57
1.56
5.74
8.94
11.19
12.62
13.45
13.92
14.22
14.35
14.22
13.80
13.15
12.49
11.96
11.71
11.68
11.74
11.69
11.35
10.71
9.89
9.06
8.30
7.51
6.56
5.38
3.99
2.42
0.74
-1.01
-2.80
-4.54
-6.14
-7.42
-8.32
-9.02
-10.03
-12.02
-15.35
-19.78
-24.41
-27.97
-29.48
-28.42
-25.01
-19.97
-14.15
-8.38
-3.14
1.42
5.29
8.48
10.88
12.45
13.23
13.44
13.35
13.15
13.06
13.07
13.11
12.98
12.48
11.66
10.72
9.94
9.44
9.13
8.80
8.25
7.38
6.21
4.85
3.50
2.34
1.50
0.91
0.37
-0.33
-1.32
-2.58
-4.06
-5.67
-7.28
-8.79
-10.09
-11.29
-12.63
-14.35
-16.65
-19.52
-22.77
-25.91
-28.19
-28.86
-27.35
-23.66
-18.41
-12.52
-6.86
-1.98
1.97
5.10
7.61
9.62
11.18
12.21
12.74
12.96
13.09
13.32
13.61
13.90
14.13
14.27
14.27
14.01
13.42
12.53
11.53
10.67
10.05
9.62
9.17
8.44
7.30
5.75
3.93
2.09
0.45
-0.91
-2.00
-2.88
-3.69
-4.67
-6.10
-8.24
-11.12
-14.57
-18.24
-21.67
-24.28
-25.48
-24.87
-22.34
-18.26
-13.22
-7.96
-3.04
1.16
4.49
6.97
8.68
9.76
10.36
10.72
11.07
11.56
12.24
12.94
13.50
13.75
13.62
13.08
12.14
10.97
9.86
9.12
8.85
8.86
8.78
8.23
7.04
5.37
3.50
1.70
0.17
-1.12
-2.24
-3.32
-4.52
-6.13
-8.54
-12.11
-16.71
-21.66
-25.83
-28.08
-27.80
-25.07
-20.56
-15.28
-10.12
-5.74
-2.36
0.12
1.96
3.48
4.81
6.06
7.25
8.35
9.32
10.10
10.68
11.10
11.40
11.46
11.16
10.38
9.19
7.80
6.47
5.49
4.97
4.75
4.48
3.66
2.08
-0.04
-2.22
-3.91
-4.92
-5.39
-5.74
-6.35
-7.49
-9.30
-11.81
-15.06
-18.98
-23.28
-27.39
-30.40
-31.35
-29.61
-25.26
-19.07
-12.12
-5.44
0.39
5.16
8.93
11.92
14.20
15.85
16.82
17.10
16.88
16.39
15.90
15.50
15.12
14.69
14.14
13.52
12.77
11.81
10.58
9.11
7.63
6.31
5.25
4.51
4.00
3.67
3.36
2.97
2.42
1.61
0.42
-1.34
-3.71
-6.49
-9.26
-11.47
-12.86
-13.55
-13.94
-14.66
-16.23
-18.94
-22.67
-26.71
-29.99
-31.36
-30.06
-25.97
-19.65
-12.10
-4.40
2.43
7.83
11.73
14.38
16.21
17.49
18.29
18.69
18.69
18.45
18.11
17.80
17.66
17.66
17.74
17.69
17.23
16.31
15.03
13.64
12.36
11.30
10.46
9.79
9.26
8.79
8.32
7.85
7.34
6.73
5.82
4.42
2.44
0.03
-2.52
-4.92
-6.98
-8.69
-10.13
-11.44
-12.84
-14.50
-16.60
-19.24
-22.35
-25.60
-28.26
-29.38
-28.18
-24.48
-18.85
-12.38
-6.14
-0.79
3.54
6.99
9.75
11.85
13.28
14.09
14.45
14.61
14.77
15.02
15.28
15.35
15.20
14.85
14.40
13.86
13.16
12.28
11.32
10.49
9.88
9.39
8.80
7.87
6.55
4.92
3.16
1.48
0.04
-1.13
-2.13
-3.13
-4.24
-5.38
-6.35
-7.04
-7.47
-7.95
-8.92
-10.70
-13.43
-16.76
-19.95
-22.19
-22.90
-22.00
-19.71
-16.45
-12.61
-8.54
-4.61
-1.12
1.76
4.03
5.86
7.37
8.71
9.91
10.94
11.71
12.20
12.45
12.56
12.60
12.49
12.08
11.34
10.37
9.41
8.63
7.97
7.32
6.47
5.30
3.79
2.01
0.14
-1.66
-3.21
-4.50
-5.61
-6.72
-8.08
-10.01
-12.80
-16.46
-20.68
-24.76
-27.82
-29.15
-28.35
-25.43
-20.82
-15.16
-9.29
-3.87
0.70
4.36
7.21
9.40
11.00
12.07
12.67
12.83
12.63
12.19
11.63
11.02
10.26
9.20
7.83
6.33
5.05
4.28
4.02
4.11
4.13
3.77
2.76
1.09
-0.91
-2.89
-4.50
-5.73
-6.82
-8.04
-9.70
-11.96
-15.03
-18.97
-23.51
-28.01
-31.49
-32.97
-31.81
-27.86
-21.64
-14.08
-6.28
0.81
6.71
11.29
14.68
17.01
18.35
18.83
18.61
18.07
17.47
17.03
16.82
16.76
16.70
16.35
15.55
14.31
12.82
11.37
10.14
9.16
8.31
7.35
6.09
4.36
2.14
-0.38
-2.92
-5.16
-7.01
-8.60
-10.07
-11.57
-13.19
-15.15
-17.76
-21.26
-25.65
-30.50
-35.01
-38.17
-39.01
-36.97
-32.01
-24.72
-16.05
-6.99
1.56
9.02
14.98
19.25
21.97
23.42
24.03
24.14
23.90
23.51
23.03
22.58
22.10
21.50
20.67
19.62
18.46
17.29
16.17
15.09
13.98
12.79
11.47
9.99
8.44
6.92
5.49
4.08
2.55
0.73
-1.45
-3.89
-6.53
-9.19
-11.71
-13.91
-15.71
-17.25
-18.87
-21.01
-24.08
-28.16
-32.89
-37.34
-40.20
-40.31
-37.07
-30.79
-22.47
-13.39
-4.62
3.14
9.64
14.87
18.92
21.85
23.70
24.55
24.63
24.25
23.74
23.24
22.67
21.94
20.98
19.84
18.61
17.32
16.01
14.62
13.16
11.62
10.07
8.60
7.28
6.12
5.03
3.98
3.01
2.19
1.51
0.74
-0.36
-1.95
-3.99
-6.22
-8.37
-10.19
-11.67
-13.09
-14.91
-17.64
-21.41
-25.78
-29.78
-32.25
-32.31
-29.61
-24.53
-17.89
-10.68
-3.77
2.37
7.58
11.87
15.25
17.63
19.02
19.50
19.30
18.64
17.73
16.81
16.06
15.63
15.43
15.18
14.60
13.53
12.01
10.21
8.37
6.79
5.61
4.88
4.34
3.65
2.51
0.84
-1.18
-3.24
-5.09
-6.57
-7.77
-8.92
-10.42
-12.61
-15.67
-19.59
-24.08
-28.71
-32.76
-35.31
-35.47
-32.62
-26.86
-19.02
-10.31
-1.94
5.25
10.90
15.01
17.83
19.67
20.77
21.24
21.14
20.57
19.71
18.80
17.97
17.19
16.36
15.30
13.92
12.20
10.27
8.37
6.74
5.49
4.51
3.51
2.19
0.39
-1.87
-4.47
-7.17
-9.68
-11.69
-13.08
-14.02
-14.98
-16.53
-19.09
-22.83
-27.51
-32.53
-37.01
-39.87
-40.26
-37.71
-32.40
-24.98
-16.41
-7.65
0.54
7.66
13.60
18.48
22.42
25.46
27.54
28.67
28.99
28.70
27.96
26.86
25.36
23.52
21.46
19.36
17.43
15.87
14.70
13.78
12.86
11.74
10.40
8.97
7.55
6.05
4.31
2.19
-0.29
-3.00
-5.85
-8.68
-11.40
-13.91
-16.11
-18.00
-19.71
-21.52
-23.86
-27.18
-31.71
-37.08
-42.36
-46.19
-47.31
-45.00
-39.21
-30.69
-20.60
-10.29
-0.82
7.27
13.86
19.12
23.16
25.94
27.49
27.90
27.48
26.53
25.32
24.06
22.85
21.76
20.77
19.82
18.94
18.17
17.66
17.45
17.49
17.66
17.76
17.59
16.89
15.51
13.55
11.25
9.03
7.18
5.74
4.60
3.44
1.94
-0.18
-3.07
-6.53
-10.18
-13.51
-16.26
-18.42
-20.21
-22.05
-24.40
-27.72
-32.23
-37.66
-43.16
-47.45
-49.24
-47.67
-42.67
-34.83
-25.24
-15.12
-5.47
2.99
9.94
15.31
19.18
21.70
23.12
23.75
24.00
24.13
24.28
24.41
24.50
24.53
24.42
24.05
23.38
22.38
21.29
20.40
19.95
20.08
20.67
21.34
21.58
20.91
19.18
16.69
14.06
11.83
10.14
8.78
7.32
5.47
3.14
0.44
-2.37
-5.07
-7.58
-9.92
-12.19
-14.35
-16.33
-18.17
-20.15
-22.65
-25.88
-29.67
-33.22
-35.47
-35.40
-32.41
-26.70
-19.08
-10.79
-2.97
3.66
8.92
12.99
16.09
18.28
19.57
20.00
19.78
19.20
18.51
17.77
16.97
16.10
15.22
14.45
13.95
13.77
13.85
13.93
13.74
13.06
11.92
10.51
9.05
7.63
6.28
4.96
3.65
2.29
0.72
-1.21
-3.51
-6.02
-8.43
-10.52
-12.21
-13.64
-15.15
-17.15
-20.06
-24.00
-28.52
-32.72
-35.40
-35.57
-32.77
-27.16
-19.48
-10.78
-2.24
5.21
11.12
15.46
18.51
20.55
21.79
22.35
22.38
22.10
21.70
21.35
21.13
20.97
20.74
20.18
19.07
17.32
15.16
13.00
11.30
10.21
9.62
9.14
8.39
7.14
5.45
3.62
2.02
0.90
0.11
-0.75
-2.07
-4.05
-6.49
-8.98
-11.15
-12.80
-13.95
-14.77
-15.55
-16.61
-18.35
-20.98
-24.59
-28.95
-33.57
-37.63
-40.04
-39.76
-36.22
-29.69
-21.21
-12.14
-3.75
3.23
8.61
12.57
15.51
17.76
19.48
20.70
21.38
21.65
21.70
21.70
21.67
21.45
20.93
20.09
19.09
18.04
17.02
16.14
15.44
15.00
14.78
14.68
14.56
14.27
13.74
12.86
11.63
10.15
8.57
7.12
5.80
4.50
3.08
1.35
-0.76
-3.27
-6.12
-9.03
-11.69
-13.82
-15.42
-16.67
-17.79
-19.06
-20.72
-23.07
-26.36
-30.56
-35.20
-39.28
-41.63
-41.26
-37.71
-31.32
-23.08
-14.33
-6.26
0.54
6.01
10.42
13.92
16.49
18.09
18.73
18.67
18.21
17.65
17.16
16.80
16.56
16.34
16.03
15.63
15.12
14.59
14.08
13.62
13.25
13.00
12.90
12.84
12.64
12.16
11.35
10.34
9.20
8.05
6.85
5.62
4.40
3.25
2.15
1.05
-0.18
-1.64
-3.37
-5.37
-7.53
-9.61
-11.36
-12.61
-13.45
-14.12
-15.01
-16.47
-18.72
-21.72
-25.04
-27.91
-29.39
-28.73
-25.68
-20.67
-14.52
-8.20
-2.46
2.26
5.84
8.47
10.35
11.65
12.44
12.83
13.04
13.28
13.72
14.19
14.44
14.23
13.49
12.41
11.25
10.28
9.61
9.14
8.64
7.85
6.63
5.06
3.39
1.88
0.62
-0.49
-1.59
-2.67
-3.64
-4.38
-4.87
-5.24
-5.70
-6.44
-7.60
-9.19
-11.15
-13.46
-16.18
-19.35
-22.72
-25.68
-27.27
-26.66
-23.58
-18.47
-12.29
-6.06
-0.53
3.98
7.47
10.19
12.33
13.97
15.01
15.36
15.12
14.56
13.98
13.47
12.97
12.36
11.59
10.69
9.71
8.63
7.52
6.42
5.45
4.59
3.72
2.72
1.41
-0.21
-2.07
-4.00
-5.69
-7.00
-7.88
-8.63
-9.64
-11.26
-13.67
-16.75
-20.19
-23.47
-25.84
-26.55
-25.02
-21.17
-15.49
-8.82
-2.15
3.78
8.46
11.71
13.63
14.45
14.54
14.21
13.72
13.34
13.18
13.23
13.24
12.88
11.97
10.56
8.93
7.36
6.00
4.91
4.00
3.11
2.05
0.63
-1.17
-3.22
-5.26
-7.08
-8.60
-9.77
-10.68
-11.49
-12.52
-14.17
-16.71
-20.21
-24.30
-28.28
-31.18
-31.98
-30.05
-25.38
-18.73
-11.27
-4.10
2.08
7.13
11.21
14.49
17.00
18.67
19.54
19.79
19.68
19.47
19.29
19.08
18.66
17.85
16.60
15.04
13.40
11.87
10.57
9.54
8.76
8.19
7.70
7.08
6.10
4.66
2.88
0.90
-1.13
-3.23
-5.48
-7.87
-10.33
-12.78
-15.19
-17.59
-20.17
-23.20
-26.89
-31.13
-35.26
-38.24
-38.98
-36.87
-32.05
-25.32
-17.79
-10.36
-3.59
2.38
7.73
12.57
16.84
20.16
22.16
22.86
22.62
22.08
21.74
21.74
21.95
22.01
21.66
20.67
19.07
17.12
15.19
13.64
12.60
11.95
11.50
11.02
10.38
9.53
8.48
7.30
6.13
4.98
3.78
2.29
0.33
-2.17
-5.04
-8.03
-10.90
-13.49
-15.77
-17.78
-19.67
-21.72
-24.24
-27.47
-31.41
-35.67
-39.49
-41.82
-41.68
-38.50
-32.49
-24.49
-15.70
-7.16
0.54
7.18
12.74
17.19
20.46
22.56
23.62
23.83
23.48
22.90
22.39
22.14
22.06
21.85
21.28
20.28
18.96
17.56
16.33
15.48
15.13
15.18
15.35
15.25
14.61
13.34
11.56
9.50
7.42
5.57
4.03
2.71
1.30
-0.57
-3.03
-5.93
-8.88
-11.53
-13.72
-15.50
-17.07
-18.63
-20.43
-22.68
-25.50
-28.89
-32.62
-36.25
-39.09
-40.37
-39.40
-35.77
-29.58
-21.51
-12.52
-3.75
3.97
10.08
14.42
17.12
18.55
19.17
19.35
19.34
19.22
19.05
18.87
18.73
18.55
18.29
17.84
17.20
16.40
15.55
14.90
14.66
14.94
15.49
15.78
15.34
14.00
12.03
9.95
8.15
6.76
5.58
4.30
2.65
0.57
-1.75
-4.02
-6.00
-7.66
-9.13
-10.54
-12.00
-13.64
-15.69
-18.49
-22.20
-26.64
-31.15
-34.76
-36.49
-35.60
-31.97
-26.08
-18.93
-11.61
-4.86
0.94
5.81
9.84
13.06
15.47
17.08
18.00
18.33
18.29
18.05
17.74
17.37
16.82
15.87
14.46
12.67
10.79
9.09
7.70
6.63
5.84
5.36
5.20
5.39
5.81
6.22
6.38
6.04
5.10
3.64
1.85
-0.02
-1.81
-3.51
-5.15
-6.73
-8.20
-9.55
-10.91
-12.52
-14.55
-16.95
-19.36
-21.22
-21.91
-20.84
-17.81
-13.03
-7.27
-1.53
3.42
7.22
9.95
11.85
13.12
13.91
14.28
14.28
13.98
13.45
12.83
12.16
11.45
10.59
9.53
8.38
7.32
6.59
6.24
6.11
5.91
5.38
4.41
2.95
1.12
-0.90
-2.88
-4.54
-5.76
-6.55
-7.08
-7.67
-8.61
-10.19
-12.53
-15.49
-18.66
-21.37
-22.96
-22.93
-21.09
-17.65
-13.01
-7.83
-2.78
1.53
4.83
7.17
8.75
9.83
10.55
11.03
11.33
11.47
11.37
10.96
10.24
9.29
8.24
7.12
5.93
4.68
3.44
2.19
0.89
-0.54
-2.13
-3.75
-5.20
-6.40
-7.35
-8.18
-8.97
-9.81
-10.83
-12.33
-14.62
-17.85
-21.76
-25.57
-28.11
-28.31
-25.52
-19.93
-12.48
-4.58
2.52
8.17
12.30
15.19
17.09
18.14
18.39
18.05
17.43
16.81
16.39
16.16
15.92
15.39
14.34
12.70
10.70
8.74
7.16
6.03
5.06
3.84
2.12
-0.04
-2.34
-4.47
-6.21
-7.56
-8.60
-9.51
-10.48
-11.73
-13.56
-16.21
-19.83
-24.16
-28.45
-31.51
-32.10
-29.52
-23.98
-16.54
-8.54
-1.13
5.09
10.02
13.91
16.98
19.34
20.91
21.55
21.28
20.41
19.42
18.71
18.36
18.09
17.51
16.34
14.56
12.35
10.09
8.24
7.14
6.93
7.34
7.84
7.90
7.20
5.77
3.87
1.81
-0.17
-1.98
-3.69
-5.47
-7.57
-10.28
-13.79
-18.11
-23.01
-27.96
-32.20
-34.77
-34.89
-32.17
-26.82
-19.57
-11.33
-3.02
4.66
11.23
16.47
20.35
22.96
24.41
24.75
24.13
22.84
21.34
20.09
19.30
18.88
18.59
18.17
17.48
16.43
15.03
13.33
11.44
9.54
7.76
6.21
5.07
4.33
3.87
3.37
2.45
0.95
-1.06
-3.33
-5.66
-7.88
-9.85
-11.47
-12.57
-13.23
-13.71
-14.49
-16.13
-19.04
-23.34
-28.63
-33.89
-37.78
-39.02
-36.96
-31.78
-24.34
-15.90
-7.64
-0.35
5.65
10.50
14.40
17.49
19.70
20.89
21.16
20.82
20.35
20.06
19.99
19.94
19.63
18.97
17.97
16.80
15.62
14.60
13.78
13.09
12.39
11.52
10.42
9.17
7.94
6.83
5.84
4.82
3.59
1.94
-0.15
-2.53
-4.80
-6.49
-7.34
-7.38
-7.01
-6.73
-6.98
-8.13
-10.40
-13.87
-18.22
-22.79
-26.58
-28.61
-28.20
-25.20
-20.03
-13.65
-7.26
-1.89
2.04
4.70
6.68
8.48
10.28
12.00
13.39
14.28
14.67
14.64
14.39
14.06
13.72
13.26
12.55
11.57
10.41
9.26
8.25
7.44
6.87
6.43
6.03
5.38
4.23
2.53
0.50
-1.48
-3.13
-4.35
-5.19
-5.81
-6.38
-7.12
-8.34
-10.33
-13.23
-16.90
-20.82
-24.22
-26.16
-25.98
-23.48
-19.09
-13.56
-7.63
-1.90
3.33
7.74
11.06
13.14
14.02
14.09
13.80
13.55
13.49
13.57
13.65
13.54
13.13
12.43
11.38
9.92
8.00
5.67
3.29
1.30
0.04
-0.56
-0.90
-1.46
-2.46
-3.79
-5.19
-6.41
-7.45
-8.44
-9.63
-11.24
-13.50
-16.47
-19.95
-23.34
-25.80
-26.47
-24.85
-20.97
-15.38
-8.95
-2.56
3.19
8.03
11.94
14.84
16.57
17.05
16.47
15.33
14.22
13.52
13.26
13.15
12.79
11.88
10.24
8.02
5.56
3.41
2.06
1.72
2.20
3.02
3.59
3.34
2.09
-0.02
-2.44
-4.61
-6.18
-7.18
-7.96
-8.96
-10.62
-13.17
-16.66
-20.82
-25.08
-28.66
-30.65
-30.44
-27.81
-23.08
-16.97
-10.24
-3.52
2.80
8.43
13.12
16.60
18.75
19.67
19.65
19.06
18.29
17.65
17.26
17.11
17.00
16.70
16.04
14.88
13.25
11.31
9.48
8.13
7.41
7.12
6.81
6.02
4.48
2.23
-0.56
-3.62
-6.64
-9.37
-11.59
-13.23
-14.29
-14.89
-15.21
-15.69
-17.00
-19.70
-24.00
-29.32
-34.32
-37.43
-37.46
-34.09
-27.95
-20.27
-12.33
-5.00
1.42
6.95
11.71
15.64
18.59
20.47
21.47
21.94
22.16
22.19
21.90
21.16
20.03
18.69
17.33
16.01
14.77
13.67
12.75
12.01
11.33
10.61
9.71
8.56
7.11
5.34
3.44
1.55
-0.22
-1.95
-3.84
-5.96
-8.25
-10.47
-12.44
-14.15
-15.69
-17.31
-19.23
-21.69
-24.78
-28.25
-31.54
-33.85
-34.36
-32.53
-28.19
-21.71
-13.92
-5.92
1.32
7.18
11.55
14.66
16.77
18.05
18.56
18.41
17.88
17.37
17.33
17.98
19.16
20.32
20.74
20.03
18.29
16.02
13.85
12.13
10.93
10.06
9.29
8.51
7.63
6.59
5.33
3.76
1.91
-0.12
-2.08
-3.69
-4.73
-5.29
-5.66
-6.34
-7.81
-10.38
-14.11
-18.71
-23.52
-27.64
-30.14
-30.38
-28.17
-23.75
-17.75
-10.92
-4.03
2.20
7.31
11.06
13.49
14.79
15.18
14.97
14.45
13.84
13.26
12.65
12.04
11.45
10.95
10.54
10.15
9.73
9.33
9.02
8.80
8.42
7.54
5.89
3.48
0.65
-2.16
-4.58
-6.46
-7.87
-9.03
-10.33
-12.10
-14.60
-17.81
-21.41
-24.72
-26.79
-26.79
-24.27
-19.49
-13.31
-6.75
-0.76
4.14
7.74
10.06
11.35
11.91
12.20
12.54
13.03
13.53
13.76
13.50
12.65
11.28
9.62
7.98
6.65
5.73
5.14
4.75
4.36
3.84
3.01
1.70
-0.04
-2.07
-4.07
-5.83
-7.31
-8.66
-10.30
-12.68
-16.18
-20.78
-25.90
-30.49
-33.28
-33.41
-30.59
-25.23
-18.17
-10.43
-2.96
3.55
8.76
12.59
15.18
16.69
17.39
17.58
17.58
17.63
17.72
17.65
17.14
15.97
14.21
12.01
9.71
7.59
5.79
4.29
2.85
1.27
-0.49
-2.34
-4.12
-5.79
-7.31
-8.66
-9.82
-10.81
-11.93
-13.56
-16.13
-19.81
-24.34
-28.99
-32.61
-34.08
-32.70
-28.44
-22.10
-14.77
-7.57
-1.15
4.27
8.73
12.47
15.53
17.90
19.39
19.93
19.70
19.08
18.56
18.34
18.36
18.32
17.87
16.84
15.20
13.19
11.19
9.56
8.49
7.84
7.17
6.05
4.22
1.77
-1.01
-3.77
-6.25
-8.39
-10.29
-12.25
-14.54
-17.33
-20.70
-24.63
-29.10
-33.82
-38.14
-41.11
-41.73
-39.38
-34.02
-26.31
-17.33
-8.21
0.12
7.25
13.17
18.06
21.99
24.83
26.38
26.61
25.76
24.27
22.55
21.00
19.81
19.02
18.50
18.01
17.39
16.55
15.50
14.33
13.09
11.92
10.86
9.95
9.06
8.06
6.86
5.46
3.89
2.12
0.08
-2.26
-4.76
-7.15
-9.19
-10.78
-12.01
-13.24
-14.94
-17.59
-21.33
-25.76
-29.94
-32.58
-32.64
-29.60
-23.73
-15.97
-7.58
0.25
6.73
11.62
15.03
17.18
18.25
18.49
18.20
17.80
17.56
17.52
17.47
17.17
16.43
15.27
13.82
12.33
11.04
10.10
9.56
9.32
9.31
9.35
9.23
8.63
7.31
5.27
2.74
0.15
-2.15
-4.00
-5.38
-6.46
-7.50
-8.90
-11.07
-14.23
-18.31
-22.80
-26.89
-29.59
-30.08
-27.90
-23.15
-16.52
-9.02
-1.65
4.85
10.12
14.06
16.74
18.34
19.06
19.12
18.71
18.04
17.32
16.79
16.51
16.31
15.83
14.77
13.06
10.98
9.01
7.60
6.99
7.00
7.10
6.66
5.34
3.22
0.77
-1.47
-3.24
-4.58
-5.71
-6.93
-8.46
-10.55
-13.40
-17.09
-21.46
-26.06
-30.09
-32.63
-32.84
-30.33
-25.30
-18.41
-10.56
-2.70
4.33
9.93
13.88
16.32
17.63
18.27
18.56
18.65
18.65
18.53
18.35
18.04
17.56
16.84
15.82
14.51
12.93
11.18
9.48
8.06
7.04
6.42
6.09
5.85
5.47
4.63
3.19
1.18
-1.21
-3.64
-5.82
-7.53
-8.71
-9.48
-10.14
-11.19
-13.05
-15.94
-19.72
-23.91
-27.76
-30.39
-30.98
-29.04
-24.55
-18.08
-10.52
-2.85
4.16
10.01
14.46
17.58
19.58
20.74
21.28
21.31
20.94
20.25
19.34
18.25
17.01
15.71
14.42
13.24
12.14
11.12
10.16
9.33
8.70
8.23
7.78
7.12
6.06
4.55
2.64
0.54
-1.51
-3.33
-4.85
-6.21
-7.47
-8.58
-9.49
-10.20
-10.98
-12.21
-14.29
-17.35
-21.14
-25.06
-28.25
-29.84
-29.20
-26.18
-21.13
-14.77
-7.91
-1.27
4.64
9.49
13.24
15.95
