1523259312.00
64.000000
-0.00
-0.00
-0.00
-0.00
-0.00
-0.00
-0.00
-0.00
-0.00
-0.00
0.00
0.01
0.01
-0.00
-0.03
-0.05
-0.05
0.00
0.13
0.36
0.66
1.01
1.37
1.72
2.06
2.40
2.79
3.24
3.80
4.42
5.06
5.66
6.20
6.68
7.15
7.68
8.31
9.14
10.09
11.04
11.88
12.56
13.14
13.76
14.65
15.96
17.91
20.32
22.90
25.38
27.58
29.57
31.68
34.32
37.81
42.54
48.15
54.10
59.83
64.97
69.58
74.14
79.34
85.71
93.76
103.00
112.62
121.73
129.77
136.75
143.30
150.75
157.77
166.64
177.95
191.79
206.97
220.57
228.25
225.36
208.53
176.87
132.76
80.05
23.07
-34.94
-92.44
-149.16
-205.23
-260.37
-313.74
-363.87
-409.82
-450.88
-486.46
-515.67
-537.14
-549.09
-549.80
-538.16
-513.94
-478.36
-433.50
-382.01
-326.52
-269.27
-211.99
-155.95
-102.16
-51.51
-4.95
36.62
72.56
102.59
126.85
145.85
160.30
170.91
178.30
182.87
184.90
184.63
182.33
178.35
173.09
166.98
160.34
153.44
146.41
139.32
132.23
125.17
118.20
111.39
104.83
98.55
92.60
86.99
81.73
76.82
72.29
68.13
64.35
60.96
57.97
55.37
53.16
51.34
49.87
48.73
47.86
47.14
46.48
45.70
44.63
43.10
40.95
38.06
34.37
29.89
24.65
18.79
12.52
6.07
-0.29
-6.31
-11.76
-16.44
-20.23
-23.06
-24.92
-25.87
-26.00
-25.42
-24.26
-22.66
-20.72
-18.54
-16.19
-13.70
-11.14
-8.55
-5.94
-3.33
-0.72
1.89
4.54
7.23
10.03
12.89
15.81
18.80
21.86
25.02
28.29
31.69
35.26
39.06
43.00
47.04
51.15
55.35
59.66
64.10
68.73
73.60
78.84
84.29
89.86
95.50
101.20
106.94
112.69
118.49
124.35
130.34
136.16
141.59
146.43
150.43
153.30
154.67
154.05
150.71
145.97
140.26
133.90
127.07
119.95
112.67
105.33
98.08
91.07
84.49
78.20
72.18
66.41
60.90
55.68
50.78
46.24
42.10
38.45
35.13
32.04
29.11
26.31
23.64
21.10
18.74
16.60
14.75
13.08
11.50
9.97
8.43
6.88
5.32
3.81
2.39
1.08
-0.16
-1.38
-2.64
-3.94
-5.25
-6.53
-7.67
-8.60
-9.30
-9.80
-10.21
-10.65
-11.20
-11.87
-12.63
-13.36
-13.98
-14.51
-15.09
-15.96
-17.38
-19.55
-22.45
-25.91
-29.62
-33.36
-37.09
-41.10
-45.87
-51.95
-59.63
-68.80
-78.96
-89.35
-99.28
-108.43
-116.98
-125.57
-134.92
-145.51
-157.30
-169.76
-182.10
-193.66
-204.20
-214.04
-223.93
-234.94
-248.31
-265.31
-286.75
-312.30
-339.78
-365.10
-383.00
-388.74
-379.87
-357.17
-324.34
-286.57
-248.69
-213.97
-183.92
-158.87
-138.77
-123.47
-112.54
-104.89
-98.60
-91.44
-81.63
-68.53
-52.86
-36.40
-21.27
-9.09
-0.50
4.96
8.49
11.48
14.96
19.28
24.15
28.90
32.88
35.67
37.22
37.78
37.73
37.43
37.06
36.53
35.49
33.41
29.79
24.39
17.42
9.62
2.12
-3.92
-7.59
-8.53
-6.93
-3.31
1.70
7.54
13.76
19.90
25.51
30.06
33.09
34.31
33.67
31.37
27.89
23.94
20.38
18.02
17.38
18.50
20.87
23.66
26.00
27.31
27.45
26.60
25.05
23.04
20.67
18.00
15.16
12.33
9.74
7.42
5.18
2.64
-0.62
-4.70
-9.17
-13.13
-15.40
-15.02
-11.55
-5.28
2.89
11.77
20.23
27.38
32.67
35.90
37.11
36.58
34.77
32.23
29.49
26.98
24.98
23.58
22.75
22.38
22.36
22.58
22.97
23.37
23.61
23.47
22.80
21.54
19.76
17.54
14.96
12.03
8.74
5.18
1.53
-1.97
-5.18
-8.21
-11.44
-15.28
-19.88
-24.84
-29.18
-31.67
-31.26
-27.49
-20.71
-11.93
-2.49
6.38
13.84
19.59
23.67
26.29
27.66
27.91
27.18
25.73
23.94
22.35
21.39
21.31
22.01
23.13
24.22
24.91
25.10
24.89
24.55
24.24
23.95
23.49
22.53
20.83
18.32
15.12
11.51
7.79
4.18
0.81
-2.35
-5.46
-8.80
-12.72
-17.48
-23.14
-29.31
-35.16
-39.48
-41.08
-39.14
-33.58
-25.02
-14.64
-3.78
6.41
15.12
21.94
26.75
29.65
30.86
30.72
29.66
28.11
26.55
25.37
24.92
25.39
26.79
28.82
31.01
32.78
33.63
33.32
31.92
29.75
27.25
24.76
22.47
20.31
18.07
15.43
12.21
8.41
4.27
0.22
-3.36
-6.31
-8.77
-11.23
-14.24
-18.19
-23.13
-28.73
-34.30
-39.02
-42.07
-42.77
-40.70
-35.72
-28.11
-18.45
-7.73
2.94
12.49
20.09
25.30
28.11
28.89
28.23
26.78
25.12
23.66
22.69
22.34
22.65
23.56
24.88
26.31
27.51
28.20
28.21
27.62
26.63
25.48
24.32
23.04
21.32
18.76
15.10
10.39
5.11
-0.08
-4.53
-7.85
-10.10
-11.66
-13.09
-14.86
-17.25
-20.39
-24.22
-28.59
-33.13
-37.10
-39.49
-39.13
-35.19
-27.56
-17.01
-5.04
6.56
16.28
23.30
27.60
29.65
30.08
29.39
27.82
25.52
22.78
20.05
17.91
16.82
17.01
18.34
20.40
22.63
24.51
25.66
25.88
25.15
23.64
21.61
19.35
17.09
14.91
12.69
10.27
7.46
4.22
0.65
-3.06
-6.69
-10.05
-13.09
-15.87
-18.52
-21.24
-24.26
-27.80
-31.90
-36.34
-40.49
-43.43
-44.10
-41.65
-35.81
-27.01
-16.29
-5.00
5.65
14.75
21.84
26.78
29.56
30.31
29.25
26.82
23.70
20.60
18.20
16.82
16.53
17.11
18.24
19.62
21.08
22.47
23.66
24.53
24.89
24.60
23.55
21.78
19.45
16.79
14.06
11.41
8.87
6.34
3.67
0.78
-2.33
-5.55
-8.64
-11.43
-13.76
-15.64
-17.26
-18.96
-21.20
-24.32
-28.45
-33.23
-37.77
-40.85
-41.24
-38.18
-31.63
-22.39
-11.79
-1.31
7.90
15.16
20.29
23.38
24.64
24.28
22.58
19.92
16.89
14.14
12.27
11.67
12.39
14.14
16.42
18.69
20.54
21.76
22.38
22.53
22.27
21.60
20.37
18.48
15.88
12.74
9.32
5.90
2.60
-0.61
-3.85
-7.15
-10.35
-13.07
-15.00
-16.04
-16.51
-17.01
-18.21
-20.50
-23.74
-27.29
-30.15
-31.32
-30.04
-26.01
-19.40
-10.86
-1.41
7.80
15.67
21.35
24.48
25.17
23.98
21.68
19.03
16.53
14.43
12.80
11.61
10.96
10.98
11.81
13.41
15.51
17.68
19.49
20.61
20.93
20.54
19.57
18.14
16.26
13.95
11.20
8.09
4.78
1.49
-1.55
-4.17
-6.30
-8.01
-9.45
-10.78
-12.11
-13.51
-15.06
-16.85
-18.98
-21.45
-24.07
-26.33
-27.49
-26.75
-23.69
-18.33
-11.34
-3.73
3.47
9.43
13.73
16.28
17.20
16.70
15.08
12.74
10.18
7.96
6.48
6.00
6.55
7.94
9.93
12.25
14.63
16.86
18.70
20.00
20.65
20.63
19.99
18.82
17.22
15.22
12.81
9.97
6.72
3.19
-0.45
-3.96
-7.17
-9.95
-12.34
-14.42
-16.40
-18.43
-20.65
-23.10
-25.69
-28.18
-30.10
-30.86
-29.89
-26.75
-21.37
-14.07
-5.59
3.12
11.01
17.27
21.44
23.50
23.78
22.80
21.06
18.89
16.53
14.14
11.97
10.30
9.38
9.31
9.93
10.89
11.82
12.51
12.92
13.18
13.37
13.45
13.22
12.42
10.89
8.66
5.90
2.86
-0.24
-3.29
-6.22
-8.93
-11.37
-13.44
-15.22
-16.91
-18.89
-21.48
-24.80
-28.59
-32.20
-34.75
-35.41
-33.66
-29.49
-23.36
-16.00
-8.25
-0.88
5.54
10.61
14.15
16.10
16.54
15.67
13.83
11.42
8.91
6.74
5.29
4.77
5.22
6.53
8.44
10.61
12.69
14.38
15.49
15.95
15.84
15.34
14.63
13.79
12.77
11.38
9.50
7.09
4.29
1.33
-1.61
-4.43
-7.13
-9.76
-12.37
-14.97
-17.63
-20.42
-23.34
-26.22
-28.61
-29.84
-29.28
-26.53
-21.66
-15.17
-7.94
-0.83
5.38
10.22
13.51
15.27
15.67
14.96
13.47
11.55
9.56
7.80
6.53
5.86
5.81
6.23
6.91
7.56
7.98
8.12
8.01
7.82
7.65
7.50
7.19
6.48
5.15
3.15
0.62
-2.12
-4.73
-6.93
-8.63
-9.89
-10.96
-12.14
-13.70
-15.77
-18.29
-20.99
-23.40
-24.93
-25.00
-23.21
-19.39
-13.77
-6.95
0.23
6.89
12.21
15.72
17.29
17.08
15.43
12.78
9.56
6.19
3.13
0.77
-0.57
-0.75
0.05
1.51
3.17
4.67
5.81
6.58
7.08
7.34
7.32
6.84
5.77
4.04
1.76
-0.86
-3.55
-6.11
-8.52
-10.89
-13.47
-16.51
-20.11
-24.14
-28.10
-31.27
-32.86
-32.27
-29.25
-23.99
-17.10
-9.41
-1.79
5.05
10.57
14.51
16.81
17.59
17.04
15.46
13.15
10.47
7.84
5.61
4.13
3.53
3.75
4.53
5.54
6.47
7.12
7.49
7.66
7.73
7.72
7.55
7.00
5.88
4.05
1.56
-1.38
-4.44
-7.29
-9.73
-11.80
-13.72
-15.84
-18.49
-21.84
-25.83
-30.12
-34.08
-36.94
-37.89
-36.29
-31.91
-24.98
-16.25
-6.79
2.23
9.85
15.49
18.97
20.53
20.57
19.55
17.88
15.93
13.99
12.38
11.32
11.01
11.47
12.57
14.03
15.53
16.82
17.74
18.30
18.47
18.22
17.44
16.05
14.05
11.61
8.99
6.43
4.05
1.79
-0.53
-2.98
-5.51
-7.95
-10.12
-12.01
-13.84
-15.92
-18.56
-21.90
-25.85
-30.10
-34.09
-37.13
-38.40
-37.20
-33.14
-26.38
-17.73
-8.39
0.37
7.57
12.80
16.12
17.85
18.33
17.80
16.49
14.70
12.90
11.54
10.96
11.19
12.01
13.14
14.35
15.60
16.97
18.50
20.03
21.25
21.81
21.48
20.19
18.16
15.66
13.02
10.44
8.06
5.86
3.81
1.82
-0.21
-2.36
-4.64
-7.01
-9.33
-11.44
-13.21
-14.66
-15.99
-17.57
-19.81
-23.03
-27.11
-31.52
-35.27
-37.22
-36.41
-32.48
-25.74
-17.07
-7.69
1.24
8.89
14.81
18.92
21.31
22.21
21.88
20.68
18.95
17.07
15.34
13.97
13.03
12.51
12.32
12.39
12.67
13.16
13.89
14.79
15.70
16.33
16.32
15.44
13.64
11.15
8.41
5.90
3.95
2.60
1.59
0.52
-1.01
-3.21
-6.01
-9.12
-12.17
-14.80
-16.88
-18.50
-19.99
-21.80
-24.27
-27.42
-30.90
-33.96
-35.64
-35.10
-31.83
-25.90
-17.97
-9.08
-0.38
7.19
13.02
16.94
19.08
19.68
19.02
17.35
14.97
12.29
9.77
7.88
6.90
6.82
7.41
8.35
9.45
10.69
12.25
14.17
16.32
18.29
19.54
19.68
18.66
16.76
14.46
12.20
10.17
8.28
6.28
3.97
1.33
-1.46
-4.10
-6.37
-8.23
-9.75
-11.11
-12.46
-13.95
-15.72
-17.99
-20.89
-24.37
-27.99
-30.88
-32.03
-30.59
-26.33
-19.70
-11.77
-3.82
3.12
8.50
12.24
14.58
15.73
15.77
14.71
12.67
10.06
7.53
5.79
5.30
6.07
7.71
9.64
11.40
12.80
13.89
14.84
15.72
16.42
16.69
16.33
15.22
13.43
11.10
8.40
5.46
2.36
-0.84
-4.01
-6.98
-9.65
-11.94
-14.00
-16.06
-18.40
-21.24
-24.56
-28.12
-31.44
-33.98
-35.15
-34.46
-31.54
-26.32
-19.09
-10.55
-1.70
6.35
12.71
16.90
18.96
19.31
18.50
16.97
15.01
12.81
10.52
8.45
6.98
6.40
6.76
7.80
9.02
9.96
10.35
10.27
10.00
9.79
9.69
9.50
8.90
7.60
5.56
2.97
0.18
-2.41
-4.57
-6.24
-7.56
-8.79
-10.22
-12.05
-14.35
-17.03
-19.90
-22.76
-25.30
-27.15
-27.79
-26.65
-23.30
-17.67
-10.24
-1.95
6.06
12.75
17.50
20.18
21.09
20.64
19.30
17.36
15.11
12.83
10.89
9.67
9.42
10.13
11.51
13.07
14.27
14.84
14.73
14.18
13.51
12.91
12.34
11.53
10.18
8.12
5.46
2.54
-0.29
-2.72
-4.75
-6.53
-8.32
-10.29
-12.48
-14.82
-17.23
-19.74
-22.43
-25.30
-28.10
-30.25
-30.91
-29.29
-25.00
-18.26
-9.96
-1.36
6.25
12.02
15.68
17.46
17.88
17.44
16.39
14.80
12.72
10.38
8.22
6.82
6.59
7.58
9.47
11.73
13.84
15.56
16.89
17.97
18.92
19.69
20.14
20.03
19.21
17.65
15.46
12.81
9.87
6.80
3.74
0.81
-1.86
-4.17
-6.08
-7.54
-8.63
-9.52
-10.45
-11.70
-13.55
-16.14
-19.36
-22.78
-25.69
-27.22
-26.64
-23.62
-18.33
-11.52
-4.22
2.54
8.01
11.87
14.21
15.33
15.54
15.09
14.06
12.53
10.67
8.79
7.30
6.62
6.91
8.08
9.72
11.39
12.73
13.65
14.29
14.84
15.37
15.69
15.45
14.28
12.13
9.24
6.15
3.35
1.07
-0.78
-2.55
-4.58
-6.96
-9.54
-11.98
-13.98
-15.45
-16.52
-17.44
-18.48
-19.89
-21.81
-24.38
-27.56
-31.11
-34.41
-36.61
-36.76
-34.16
-28.68
-20.84
-11.75
-2.73
5.05
10.93
14.80
17.00
18.05
18.39
18.22
17.53
16.32
14.72
13.01
11.62
10.89
10.96
11.71
12.86
14.13
15.29
16.27
17.01
17.45
17.44
16.77
15.33
13.21
10.70
8.25
6.20
4.59
3.20
1.61
-0.52
-3.22
-6.18
-8.96
-11.16
-12.65
-13.59
-14.33
-15.27
-16.71
-18.80
-21.59
-24.91
-28.38
-31.31
-32.81
-32.03
-28.42
-22.06
-13.66
-4.40
4.44
11.83
17.20
20.49
21.96
22.02
21.09
19.49
17.53
15.47
13.61
12.20
11.42
11.31
11.76
12.55
13.43
14.17
14.66
14.86
14.83
14.61
14.17
13.44
12.34
10.89
9.19
7.42
5.74
4.19
2.72
1.14
-0.69
-2.85
-5.24
-7.72
-10.09
-12.21
-14.06
-15.77
-17.59
-19.85
-22.81
-26.52
-30.61
-34.31
-36.55
-36.39
-33.34
-27.55
-19.82
-11.25
-2.85
4.63
10.83
15.63
18.94
20.69
20.84
19.57
17.28
14.56
12.02
10.15
9.19
9.16
9.87
11.07
12.47
13.79
14.81
15.43
15.62
15.44
14.96
14.28
13.42
12.40
11.19
9.75
8.05
6.10
3.95
1.68
-0.54
-2.55
-4.27
-5.71
-6.96
-8.21
-9.70
-11.69
-14.36
-17.74
-21.52
-25.05
-27.45
-27.91
-25.94
-21.63
-15.62
-8.82
-2.20
3.53
7.92
10.80
12.15
12.14
11.07
9.34
7.38
5.48
3.78
2.33
1.20
0.59
0.74
1.86
3.88
6.45
9.02
11.09
12.34
12.70
12.33
11.47
10.27
8.79
7.02
4.88
2.40
-0.37
-3.27
-6.14
-8.85
-11.35
-13.80
-16.44
-19.56
-23.32
-27.65
-32.15
-36.12
-38.72
-39.22
-37.12
-32.37
-25.42
-17.07
-8.34
-0.16
6.72
11.90
15.28
16.95
17.12
16.07
14.14
11.72
9.28
7.26
6.00
5.62
6.07
7.13
8.54
10.06
11.48
12.60
13.30
13.45
13.05
12.16
10.94
9.47
7.79
5.83
3.50
0.83
-2.12
-5.15
-8.10
-10.84
-13.35
-15.71
-18.03
-20.52
-23.32
-26.53
-30.12
-33.79
-36.94
-38.75
-38.40
-35.35
-29.57
-21.61
-12.46
-3.33
4.73
11.01
15.29
17.70
18.63
18.47
17.58
16.21
14.52
12.71
11.02
9.68
8.97
9.02
9.78
11.00
12.23
13.10
13.34
12.97
12.24
11.53
11.07
10.80
10.41
9.49
7.79
5.31
2.35
-0.76
-3.74
-6.54
-9.29
-12.17
-15.28
-18.64
-22.25
-26.07
-30.09
-34.10
-37.66
-40.02
-40.30
-37.84
-32.45
-24.58
-15.19
-5.54
3.23
10.31
15.35
18.34
19.52
19.24
17.90
15.94
13.79
11.83
10.32
9.36
8.91
8.95
9.42
10.36
11.70
13.32
15.01
16.48
17.52
18.05
18.11
17.80
17.16
16.12
14.60
12.53
9.87
6.73
3.18
-0.68
-4.77
-8.97
-13.06
-16.75
-19.88
-22.51
-24.99
-27.87
-31.55
-35.99
-40.47
-43.81
-44.73
-42.38
-36.70
-28.45
-18.86
-9.22
-0.46
6.97
12.96
17.55
20.77
22.62
23.19
22.79
21.87
20.97
20.47
20.51
21.01
21.77
22.65
23.55
24.47
25.35
26.06
26.45
26.38
25.85
24.97
23.84
22.55
21.04
19.21
16.94
14.25
11.29
8.38
5.84
3.87
2.45
1.31
0.07
-1.57
-3.55
-5.54
-7.03
-7.65
-7.45
-6.99
-7.13
-8.76
-12.36
-17.75
-24.14
-30.30
-34.88
-36.82
-35.57
-31.17
-24.24
-15.73
-6.71
1.80
9.04
14.47
17.85
19.16
18.70
16.98
14.72
12.60
11.20
10.82
11.49
12.99
14.99
17.19
19.34
21.28
22.89
24.12
24.92
25.34
25.47
25.45
25.41
25.37
25.24
24.75
23.62
21.62
18.72
15.07
11.11
7.31
4.09
1.69
0.00
-1.32
-2.76
-4.67
-7.18
-10.15
-13.21
-15.97
-18.14
-19.62
-20.56
-21.20
-21.88
-22.97
-24.78
-27.40
-30.62
-33.79
-35.92
-35.94
-33.04
-27.06
-18.64
-9.03
0.25
7.94
13.34
16.37
17.37
16.85
15.24
12.87
10.10
7.34
5.15
4.09
4.48
6.34
9.30
12.79
16.26
19.33
21.88
23.98
25.76
27.21
28.18
28.38
27.60
25.81
23.29
20.43
17.66
15.24
13.17
11.32
9.45
7.46
5.36
3.28
1.37
-0.28
-1.74
-3.11
-4.59
-6.27
-8.18
-10.27
-12.43
-14.64
-16.91
-19.34
-22.01
-24.98
-28.23
-31.74
-35.37
-38.84
-41.64
-43.02
-42.17
-38.44
-31.75
-22.63
-12.22
-1.96
6.93
13.64
18.03
20.39
21.26
21.12
20.31
19.03
17.44
15.80
14.44
13.76
14.02
15.23
17.14
19.28
21.21
22.63
23.52
24.03
24.34
24.46
24.30
23.63
22.26
20.20
17.58
14.70
11.82
9.14
6.83
4.93
3.44
2.26
1.18
-0.12
-1.92
-4.30
-7.16
-10.14
-12.81
-14.86
-16.18
-16.92
-17.48
-18.34
-19.95
-22.52
-25.84
-29.34
-32.16
-33.37
-32.27
-28.68
-22.90
-15.68
-7.94
-0.53
5.94
11.12
14.84
17.03
17.74
17.09
15.39
13.12
10.80
8.92
7.78
7.49
7.94
8.97
10.41
12.10
13.90
15.63
17.10
18.14
18.62
18.55
17.96
16.92
15.52
13.86
12.08
10.36
8.88
7.69
6.68
5.55
3.92
1.54
-1.63
-5.27
-8.92
-12.10
-14.56
-16.35
-17.80
-19.37
-21.45
-24.29
-27.88
-32.03
-36.36
-40.31
-43.12
-44.01
-42.29
-37.65
-30.40
-21.42
-11.98
-3.35
3.56
8.40
11.31
12.71
13.05
12.68
11.85
10.79
9.72
8.90
8.48
8.45
8.69
8.99
9.22
9.39
9.69
10.36
11.58
13.29
15.22
16.91
17.90
17.83
16.67
14.63
12.12
9.51
7.08
4.83
2.62
0.15
-2.88
-6.57
-10.77
-15.02
-18.72
-21.37
-22.74
-23.08
-22.92
-22.96
-23.77
-25.63
-28.59
-32.37
-36.54
-40.43
-43.18
-43.86
-41.71
-36.45
-28.49
-18.85
-8.91
-0.01
6.94
11.65
14.33
15.58
15.98
15.94
15.62
15.11
14.49
14.06
14.18
15.19
17.13
19.69
22.29
24.32
25.54
26.12
26.51
27.18
28.25
29.42
30.12
29.86
28.47
26.18
23.47
20.82
18.48
16.46
14.59
12.72
10.77
8.75
6.69
4.54
2.18
-0.51
-3.61
-7.04
-10.63
-14.17
-17.48
-20.57
-23.66
-27.08
-31.12
-35.81
-40.74
-45.03
-47.53
-47.23
-43.50
-36.49
-27.05
-16.47
-6.19
2.69
9.53
14.18
16.88
17.98
17.89
16.98
15.64
14.28
13.27
12.89
13.25
14.25
15.70
17.36
19.05
20.64
22.07
23.28
24.24
24.92
25.27
25.27
24.89
24.08
22.83
21.12
19.00
16.50
13.70
10.72
7.69
4.76
2.07
-0.32
-2.40
-4.25
-5.95
-7.59
-9.20
-10.76
-12.28
-13.80
-15.34
-17.04
-19.00
-21.39
-24.41
-28.19
-32.68
-37.55
-42.05
-45.13
-45.75
-43.21
-37.43
-29.06
-19.24
-9.31
-0.37
6.84
12.09
15.46
17.22
17.73
17.36
16.43
15.31
14.26
13.53
13.25
13.47
14.14
15.14
16.34
17.62
18.92
20.22
21.50
22.67
23.59
24.05
23.92
23.10
21.69
19.87
17.90
15.96
14.16
12.48
10.86
9.24
7.62
6.04
4.50
3.01
1.47
-0.24
-2.25
-4.64
-7.44
-10.52
-13.70
-16.80
-19.66
-22.36
-25.12
-28.29
-32.17
-36.76
-41.70
-46.20
-49.22
-49.81
-47.32
-41.72
-33.53
-23.78
-13.69
-4.40
3.34
9.16
13.10
15.44
16.48
16.53
15.89
14.91
14.00
13.58
14.00
15.32
17.38
19.77
22.04
23.88
25.13
25.85
26.19
26.20
25.85
25.06
23.78
22.03
19.94
17.70
15.44
13.21
11.03
8.88
6.83
5.01
3.55
2.49
1.73
0.99
-0.05
-1.65
-3.91
-6.68
-9.64
-12.47
-14.95
-17.13
-19.29
-21.88
-25.25
-29.54
-34.48
-39.41
-43.37
-45.35
-44.59
-40.84
-34.42
-26.15
-17.12
-8.36
-0.67
5.55
10.14
13.13
14.64
14.87
14.15
12.91
11.67
10.85
10.73
11.40
12.76
14.61
16.71
18.80
20.70
22.23
23.32
23.88
23.88
23.26
21.98
20.07
17.69
15.08
12.50
10.05
7.73
5.44
3.09
0.70
-1.62
-3.80
-5.82
-7.80
-9.83
-11.98
-14.20
-16.46
-18.80
-21.31
-24.08
-27.18
-30.55
-34.15
-37.85
-41.45
-44.56
-46.43
-46.16
-42.98
-36.64
-27.71
-17.42
-7.30
1.41
8.09
12.73
15.72
17.44
18.14
17.91
16.90
15.46
14.13
13.42
13.65
14.83
16.62
18.59
20.35
21.69
22.56
23.10
23.45
23.69
23.73
23.40
22.45
20.78
18.44
15.72
12.99
10.57
8.63
7.09
5.75
4.34
2.67
0.66
-1.66
-4.20
-6.83
-9.45
-12.03
-14.57
-17.11
-19.81
-22.90
-26.66
-31.21
-36.35
-41.41
-45.31
-46.89
-45.30
-40.39
-32.75
-23.52
-13.99
-5.21
2.18
7.90
11.94
14.38
15.38
15.24
14.43
13.50
12.93
13.07
14.02
15.65
17.72
19.94
22.04
23.84
25.17
25.96
26.24
26.08
25.62
24.94
24.04
22.78
21.01
18.66
15.83
12.69
9.49
6.38
3.40
0.48
-2.47
-5.49
-8.54
-11.47
-14.13
-16.35
-18.07
-19.39
-20.54
-21.89
-23.80
-26.52
-29.98
-33.72
-36.94
-38.71
-38.25
-35.15
-29.55
-22.07
-13.64
-5.25
2.32
8.58
13.30
16.51
18.34
18.96
18.63
17.68
16.48
15.48
15.03
15.37
16.51
18.19
20.04
21.65
22.77
23.34
23.52
23.50
23.36
23.04
22.28
20.86
18.69
16.00
13.15
10.58
8.53
6.98
5.64
4.15
2.25
-0.05
-2.62
-5.21
-7.69
-10.08
-12.49
-15.01
-17.63
-20.31
-23.09
-26.14
-29.74
-33.95
-38.44
-42.29
-44.21
-42.98
-38.02
-29.67
-19.14
-8.12
1.85
9.76
15.34
18.84
20.73
21.39
21.04
19.80
17.91
15.84
14.20
13.60
14.31
16.23
18.88
21.64
24.00
25.73
26.93
27.89
28.82
29.73
30.39
30.43
29.54
27.65
24.95
21.83
18.72
15.88
13.38
11.14
8.92
6.57
3.97
1.14
-1.81
-4.75
-7.50
-9.92
-11.96
-13.74
-15.53
-17.69
-20.61
-24.52
-29.41
-34.92
-40.31
-44.55
-46.55
-45.42
-40.78
-32.94
-22.86
-11.89
-1.40
7.57
14.50
19.27
22.10
23.27
23.08
21.89
20.11
18.27
16.85
16.17
16.34
17.18
18.36
19.60
20.71
21.69
22.59
23.46
24.25
24.79
24.93
24.49
23.37
21.59
19.25
16.49
13.55
10.62
7.82
5.16
2.55
-0.13
-2.91
-5.79
-8.64
-11.28
-13.58
-15.49
-17.04
-18.36
-19.74
-21.56
-24.25
-28.01
-32.61
-37.27
-40.74
-41.72
-39.35
-33.51
-24.94
-14.95
-4.93
4.07
11.48
17.15
21.16
23.61
24.57
24.13
22.53
20.16
17.58
15.37
14.01
13.74
14.49
15.93
17.63
19.15
20.30
21.10
21.78
22.51
23.27
23.77
23.58
22.34
20.06
17.10
14.06
11.44
9.44
7.83
6.14
3.94
1.10
-2.22
-5.67
-8.93
-11.84
-14.41
-16.76
-18.96
-21.11
-23.33
-25.83
-28.82
-32.30
-35.99
-39.20
-41.01
-40.52
-37.19
-31.03
-22.66
-13.14
-3.64
4.77
11.41
15.98
18.57
19.48
19.11
17.85
16.05
14.05
12.13
10.56
9.58
9.27
9.62
10.48
11.67
12.99
14.28
15.37
16.12
16.37
16.02
15.09
13.69
11.99
10.12
8.05
5.69
2.88
-0.35
-3.85
-7.30
-10.42
-13.07
-15.31
-17.34
-19.42
-21.74
-24.45
-27.60
-31.08
-34.56
-37.41
-38.79
-37.84
-34.04
-27.42
-18.67
-8.97
0.38
8.29
14.16
17.86
19.62
19.83
18.79
16.77
14.04
10.94
7.99
5.72
4.62
4.87
6.30
8.44
10.74
12.71
14.09
14.87
15.10
14.84
14.04
12.62
10.53
7.90
4.96
2.00
-0.81
-3.47
-6.09
-8.83
-11.66
-14.37
-16.70
-18.48
-19.85
-21.20
-23.10
-25.98
-29.99
-34.80
-39.70
-43.65
-45.64
-44.81
-40.75
-33.66
-24.29
-13.83
-3.58
5.30
12.06
16.47
18.75
19.40
18.97
18.03
17.00
16.14
15.61
15.42
15.47
15.69
15.96
16.27
16.65
17.12
17.65
18.10
18.26
17.95
17.08
15.75
14.18
12.60
11.08
9.50
7.58
5.07
1.90
-1.78
-5.57
-9.06
-12.01
-14.41
-16.53
-18.73
-21.31
-24.44
-28.15
-32.32
-36.76
-41.06
-44.53
-46.26
-45.34
-41.16
-33.79
-23.97
-13.02
-2.41
6.65
13.45
17.86
20.16
20.79
20.18
18.70
16.63
14.25
11.95
10.10
9.03
8.92
9.75
11.27
13.18
15.10
16.78
18.06
18.85
19.11
18.79
17.89
16.44
14.56
12.35
9.88
7.20
4.33
1.37
-1.55
-4.26
-6.70
-8.88
-10.92
-12.95
-15.06
-17.36
-19.97
-23.12
-27.05
-31.76
-36.77
-41.14
-43.58
-43.02
-38.94
-31.62
-22.09
-11.74
-1.90
6.46
12.84
17.12
19.51
20.33
19.97
18.83
17.25
15.49
13.71
12.11
10.89
10.34
10.65
11.85
13.68
15.64
17.25
18.19
18.39
18.03
17.32
16.32
14.88
12.77
9.84
6.13
1.98
-2.19
-5.96
-9.08
-11.49
-13.34
-14.84
-16.26
-17.82
-19.73
-22.10
-25.01
-28.37
-31.84
-34.85
-36.61
-36.31
-33.38
-27.73
-19.83
-10.67
-1.40
6.91
13.52
18.13
20.78
21.69
21.17
19.57
17.31
14.85
12.69
11.21
10.64
10.93
11.91
13.24
14.58
15.66
16.30
16.47
16.21
15.68
15.04
14.35
13.51
12.30
10.45
7.79
4.36
0.42
-3.66
-7.50
-10.86
-13.72
-16.19
-18.57
-21.17
-24.30
-28.20
-32.87
-38.01
-42.93
-46.59
-47.90
-45.99
-40.57
-32.09
-21.65
-10.66
-0.47
7.96
14.23
18.36
20.63
21.40
21.04
19.89
18.34
16.78
15.57
14.88
14.66
14.78
15.07
15.48
16.10
17.04
18.28
19.58
20.56
20.86
20.33
19.03
17.24
15.24
13.13
10.87
8.41
5.75
3.03
0.42
-1.99
-4.30
-6.73
-9.43
-12.43
-15.57
-18.72
-21.91
-25.43
-29.64
-34.69
-40.21
-45.17
-48.18
-47.93
-43.79
-36.05
-25.88
-14.91
-4.68
3.82
10.25
14.84
18.00
20.09
21.34
21.89
21.91
21.70
21.62
21.94
22.77
23.94
25.12
25.98
26.32
26.13
25.56
24.79
23.93
22.92
21.55
19.58
16.78
13.09
8.62
3.60
-1.65
-6.92
-12.14
-17.43
-23.02
-29.14
-35.85
-43.09
-50.59
-57.96
-64.88
-71.13
-76.79
-82.20
-88.01
-94.94
-103.52
-113.81
-125.13
-136.26
-145.68
-152.15
-155.02
-154.40
-150.99
-145.67
-139.07
-131.27
-121.86
-110.08
-95.20
-76.80
-54.89
-29.93
-2.66
25.94
54.82
82.77
108.59
131.08
149.27
162.58
170.90
174.61
174.45
171.18
165.54
158.06
149.23
139.52
129.47
119.57
110.20
101.46
93.18
85.01
76.63
67.90
58.92
49.99
41.48
33.74
26.95
21.08
15.89
10.98
5.90
0.27
-5.93
-12.32
-18.11
-22.25
-23.80
-22.20
-17.51
-10.41
-2.01
6.40
13.66
18.95
21.89
22.62
21.54
19.26
16.34
13.21
10.20
7.56
5.60
4.63
4.87
6.32
8.68
11.40
13.85
15.62
16.51
16.57
16.04
15.05
13.66
11.81
9.42
6.49
3.15
-0.36
-3.76
-6.84
-9.51
-11.81
-13.89
-15.91
-18.06
-20.50
-23.41
-26.92
-31.02
-35.35
-39.23
-41.65
-41.61
-38.50
-32.41
-24.12
-14.87
-5.93
1.76
7.81
12.24
15.24
16.95
17.37
16.47
14.35
11.44
8.39
5.92
4.59
4.62
5.84
7.81
10.05
12.15
13.84
15.04
15.72
15.87
15.45
14.39
12.70
10.41
7.65
4.58
1.28
-2.19
-5.79
-9.41
-12.86
-15.89
-18.37
-20.43
-22.50
-25.25
-29.22
-34.48
-40.35
-45.53
-48.53
-48.19
-44.12
-36.81
-27.40
-17.20
-7.37
1.33
8.44
13.72
17.07
18.51
18.29
16.88
14.88
12.83
11.10
9.85
9.15
9.09
9.79
11.33
13.61
16.33
19.01
21.21
22.62
23.19
23.04
22.29
21.07
19.37
17.16
14.46
11.38
8.09
4.76
1.48
-1.77
-4.99
-8.25
-11.47
-14.57
-17.50
-20.39
-23.55
-27.38
-32.12
-37.51
-42.67
-46.28
-46.97
-43.94
-37.24
-27.88
-17.35
-7.10
1.87
9.10
14.60
18.53
21.04
22.25
22.38
21.78
20.89
20.14
19.78
19.90
20.39
21.13
22.00
22.91
23.85
24.80
25.75
26.66
27.39
27.75
27.52
26.53
24.70
22.10
18.89
15.25
11.47
7.84
4.60
1.89
-0.36
-2.40
-4.60
-7.21
-10.20
-13.30
-16.09
-18.33
-20.16
-22.03
-24.59
-28.37
-33.53
-39.76
-46.30
-52.07
-55.85
-56.60
-53.65
-46.96
-37.15
-25.39
-13.15
-1.81
7.63
14.73
19.54
22.45
23.98
24.62
24.73
24.54
24.23
23.93
23.78
23.91
24.36
25.07
25.94
26.82
27.62
28.32
28.99
29.71
30.47
31.12
31.40
30.98
29.61
27.21
23.87
19.86
15.54
11.25
7.21
3.52
0.15
-2.99
-6.02
-9.06
-12.21
-15.52
-18.99
-22.56
-26.09
-29.41
-32.31
-34.68
-36.53
-38.15
-40.04
-42.75
-46.57
-51.24
-55.84
-58.91
-58.92
-54.86
-46.64
-35.17
-22.01
-8.87
2.89
12.50
19.76
24.82
27.99
29.61
30.04
29.68
28.93
28.19
27.71
27.57
27.67
27.83
27.91
27.90
27.98
28.38
29.30
30.64
32.07
33.12
33.35
32.61
31.01
28.87
26.47
23.93
21.18
18.09
14.64
10.99
7.42
4.22
1.45
-1.01
-3.44
-6.10
-9.09
-12.28
-15.42
-18.23
-20.58
-22.55
-24.35
-26.31
-28.69
-31.73
-35.49
-39.94
-44.83
-49.62
-53.48
-55.35
-54.24
-49.51
-41.19
-30.10
-17.62
-5.37
5.29
13.55
19.22
22.57
24.08
24.17
23.14
21.24
18.85
16.43
14.60
13.84
14.35
15.93
18.09
20.24
21.93
23.07
23.84
24.56
25.48
26.56
27.50
27.89
27.32
25.65
23.01
19.81
16.51
13.49
10.92
8.69
6.60
4.40
1.97
-0.70
-3.47
-6.20
-8.78
-11.20
-13.50
-15.80
-18.18
-20.78
-23.75
-27.25
-31.26
-35.49
-39.23
-41.47
-41.19
-37.72
-31.01
-21.72
-11.08
-0.43
9.08
16.70
22.16
25.52
27.00
26.91
25.53
23.21
20.31
17.33
14.68
12.72
11.64
11.42
11.90
12.84
14.05
15.41
16.87
18.35
19.70
20.72
21.19
20.99
20.12
18.68
16.82
14.66
12.24
9.63
6.87
4.12
1.54
-0.75
-2.77
-4.62
-6.49
-8.52
-10.74
-13.14
-15.73
-18.59
-21.84
-25.49
-29.27
-32.50
-34.26
-33.67
-30.24
-24.12
-16.11
-7.36
0.98
8.07
13.53
17.28
19.37
19.89
18.87
16.42
12.88
8.75
4.75
1.55
-0.33
-0.70
0.32
2.29
4.64
6.89
8.76
10.20
11.31
12.17
12.74
12.82
12.20
10.75
8.52
5.78
2.83
-0.04
-2.68
-5.08
-7.24
-9.23
-11.15
-13.17
-15.53
-18.42
-21.87
-25.55
-28.76
-30.63
-30.34
-27.49
-22.21
-15.21
-7.46
0.09
6.69
11.96
15.75
17.98
18.60
17.62
15.24
11.90
8.26
4.95
2.39
0.67
-0.36
-0.93
-1.17
-1.03
-0.39
0.77
2.32
3.92
5.13
5.56
5.01
3.48
1.22
-1.46
-4.21
-6.81
-9.13
-11.23
-13.30
-15.60
-18.40
-21.87
-25.89
-30.04
-33.53
-35.44
-34.97
-31.72
-25.89
-18.20
-9.75
-1.66
5.16
10.17
13.15
14.18
13.49
11.44
8.43
4.91
1.38
-1.71
-4.00
-5.28
-5.54
-4.94
-3.73
-2.22
-0.66
0.81
2.09
3.07
3.57
3.33
2.14
-0.14
-3.39
-7.28
-11.35
-15.15
-18.46
-21.34
-24.17
-27.39
-31.30
-35.83
-40.42
-44.15
-46.04
-45.30
-41.57
-35.08
-26.53
-16.91
-7.29
1.39
8.45
13.48
16.38
17.23
16.31
14.03
10.92
7.54
4.51
2.30
1.18
1.15
1.96
3.29
4.83
6.40
7.92
9.36
10.63
11.51
11.75
11.07
9.35
6.62
3.07
-1.02
-5.35
-9.59
-13.50
-16.93
-19.87
-22.47
-25.11
-28.23
-32.22
-37.14
-42.57
-47.54
-50.83
-51.33
-48.41
-42.19
-33.47
-23.50
-13.59
-4.72
2.54
8.06
11.98
14.57
16.03
16.58
16.42
15.82
15.15
14.81
15.04
15.93
17.29
18.85
20.31
21.54
22.57
23.47
24.20
24.62
24.46
23.48
21.64
19.12
16.23
13.19
10.01
6.53
2.50
-2.21
-7.46
-12.84
-17.83
-22.01
-25.23
-27.71
-29.97
-32.63
-36.13
-40.53
-45.32
-49.51
-51.83
-51.21
-47.05
-39.50
-29.52
-18.46
-7.75
1.54
8.86
14.20
17.88
20.30
21.85
22.82
23.48
24.09
24.86
25.93
27.29
28.81
30.30
31.65
32.88
34.14
35.57
37.22
38.91
40.36
41.27
41.41
40.72
39.27
37.21
34.74
32.03
29.27
26.64
24.26
22.16
20.32
18.57
16.76
14.79
12.68
10.53
8.49
6.65
4.97
3.26
1.33
-0.98
-3.75
-6.90
-10.28
-13.71
-17.07
-20.27
-23.39
-26.56
-30.07
-34.20
-39.16
-44.97
-51.21
-57.11
-61.54
-63.36
-61.72
-56.31
-47.53
-36.38
-24.19
-12.36
-1.98
6.30
12.34
16.37
18.83
20.24
21.05
21.62
22.22
23.09
24.39
26.13
28.24
30.47
32.48
34.03
35.01
35.55
35.93
36.49
37.35
38.43
39.41
39.87
39.55
38.37
36.52
34.36
32.23
30.31
28.60
26.94
25.16
23.19
21.03
18.80
16.66
14.66
12.81
11.04
9.22
7.20
4.81
1.91
-1.59
-5.59
-9.82
-13.87
-17.34
-20.07
-22.24
-24.33
-26.92
-30.38
-34.54
-38.76
-41.94
-42.90
-40.82
-35.44
-27.21
-17.13
-6.48
3.50
11.90
18.22
22.44
24.75
25.52
25.12
23.93
22.35
20.73
19.40
18.58
18.30
18.51
19.09
19.95
21.02
22.24
23.49
24.56
25.28
25.51
25.24
24.57
23.58
22.30
20.75
18.89
16.73
14.33
11.82
9.30
6.89
4.64
2.63
0.89
-0.56
-1.78
-2.94
-4.24
-5.86
-7.86
-10.22
-12.78
-15.39
-17.94
-20.39
-22.87
-25.59
-28.81
-32.64
-36.86
-40.87
-43.72
-44.38
-42.10
-36.74
-28.85
-19.47
-9.89
-1.22
5.76
10.68
13.53
14.57
14.21
12.98
11.39
9.91
8.83
8.26
8.24
8.68
9.54
10.71
12.12
13.59
14.99
16.18
17.14
17.83
18.25
18.34
17.98
17.05
15.46
13.22
10.47
7.43
4.31
1.37
-1.23
-3.36
-4.96
-6.07
-6.81
-7.38
-7.99
-8.79
-9.87
-11.21
-12.71
-14.25
-15.78
-17.29
-18.85
-20.62
-22.85
-25.73
-29.31
-33.33
-37.09
-39.63
-39.95
-37.37
-31.88
-24.14
-15.27
-6.51
1.15
7.19
11.52
14.30
15.75
16.06
15.35
13.76
11.59
9.29
7.42
6.49
6.77
8.20
10.42
12.97
15.43
17.56
19.30
20.70
21.69
22.17
21.95
20.94
19.18
16.89
14.35
11.82
9.41
7.11
4.90
2.72
0.62
-1.33
-3.02
-4.36
-5.27
-5.74
-5.85
-5.73
-5.63
-5.84
-6.62
-8.16
-10.47
-13.43
-16.79
-20.22
-23.39
-26.11
-28.36
-30.35
-32.49
-35.16
-38.48
-42.10
-45.20
-46.68
-45.58
-41.39
-34.31
-25.20
-15.26
-5.67
2.65
9.19
13.79
16.51
17.59
17.37
16.27
14.73
13.18
11.91
11.04
10.56
10.38
10.41
10.58
10.93
11.57
12.60
14.09
15.96
18.03
19.98
21.50
22.35
22.48
21.92
20.77
19.12
17.02
14.58
11.98
9.47
7.25
5.40
3.80
2.19
0.31
-1.90
-4.32
-6.65
-8.54
-9.82
-10.53
-10.90
-11.34
-12.24
-13.82
-16.09
-18.79
-21.53
-23.94
-25.86
-27.36
-28.72
-30.31
-32.43
-35.25
-38.78
-42.84
-47.02
-50.67
-52.92
-52.87
-49.85
-43.74
-35.08
-24.97
-14.76
-5.63
1.67
6.95
10.42
12.55
13.83
14.59
15.08
15.34
15.37
15.14
14.69
14.12
13.60
13.30
13.36
13.84
14.70
15.86
17.21
18.64
20.00
21.13
21.85
21.99
21.51
20.47
19.04
17.40
15.71
14.03
12.37
10.73
9.11
7.51
5.91
4.27
2.57
0.85
-0.83
-2.44
-4.02
-5.73
-7.72
-10.09
-12.80
-15.68
-18.52
-21.20
-23.72
-26.17
-28.70
-31.39
-34.36
-37.72
-41.63
-46.15
-51.09
-55.88
-59.53
-60.91
-59.09
-53.74
-45.28
-34.83
-23.79
-13.44
-4.66
2.24
7.33
10.89
13.23
14.64
15.37
15.66
15.78
15.95
16.35
17.00
17.85
18.84
19.92
21.13
22.54
24.26
26.27
28.45
30.53
32.17
33.08
33.10
32.28
30.81
28.99
27.04
25.15
23.34
21.57
19.76
17.81
15.69
13.39
10.97
8.54
6.22
4.08
2.08
0.10
-2.00
-4.32
-6.86
-9.52
-12.19
-14.80
-17.36
-19.94
-22.59
-25.40
-28.53
-32.22
-36.71
-42.00
-47.67
-52.81
-56.13
-56.49
-53.24
-46.56
-37.34
-26.83
-16.28
-6.61
1.70
8.43
13.53
17.04
19.05
19.84
19.86
19.64
19.65
20.07
20.87
21.76
22.48
22.96
23.34
23.97
25.13
26.93
29.14
31.33
33.02
33.93
33.99
33.33
32.14
30.58
28.74
26.64
24.35
21.95
19.55
17.25
15.05
12.91
10.75
8.51
6.21
3.95
1.77
-0.28
-2.28
-4.34
-6.61
-9.14
-11.90
-14.77
-17.54
-20.11
-22.49
-24.84
-27.45
-30.64
-34.57
-39.05
-43.46
-46.78
-47.95
-46.12
-41.04
-33.18
-23.55
-13.35
-3.63
4.87
11.74
16.84
20.10
21.58
21.48
20.20
18.27
16.32
14.86
14.20
14.46
15.56
17.33
19.51
21.90
24.33
26.64
28.73
30.43
31.55
31.87
31.30
29.90
27.94
25.74
23.56
21.49
19.44
17.25
14.81
12.14
9.41
6.79
4.44
2.37
0.53
-1.19
-2.97
-4.94
-7.13
-9.48
-11.84
-13.98
-15.78
-17.29
-18.84
-20.87
-23.82
-27.81
-32.52
-37.15
-40.61
-41.84
-40.11
-35.32
-27.97
-19.08
-9.81
-1.25
5.89
11.31
15.02
17.25
18.29
18.39
17.86
17.00
16.14
15.59
15.53
15.98
16.85
18.00
19.38
21.06
23.16
25.73
28.63
31.43
33.53
34.37
33.67
31.53
28.35
24.73
21.17
17.89
14.91
12.04
9.07
5.99
2.87
-0.10
-2.73
-4.94
-6.71
-8.14
-9.38
-10.62
-12.04
-13.79
-15.90
-18.28
-20.78
-23.20
-25.46
-27.60
-29.88
-32.61
-36.02
-40.07
-44.27
-47.80
-49.58
-48.72
-44.72
-37.73
-28.52
-18.28
-8.26
0.49
7.30
12.00
14.75
16.00
16.25
16.00
15.64
15.43
15.49
15.81
16.37
17.10
18.00
19.07
20.29
21.62
22.90
23.98
24.72
25.05
24.93
24.35
23.30
21.81
19.92
17.77
15.51
13.28
11.17
9.10
6.99
4.74
2.34
-0.08
-2.34
-4.21
-5.63
-6.67
-7.56
-8.60
-10.04
-11.98
-14.35
-16.97
-19.68
-22.37
-25.04
-27.72
-30.45
-33.29
-36.31
-39.55
-42.86
-45.82
-47.64
-47.35
-44.19
-37.94
-29.13
-18.92
-8.77
0.08
6.93
11.64
14.54
16.08
16.65
16.50
15.85
14.93
14.02
13.40
13.28
13.72
14.69
16.07
17.74
19.61
21.60
23.62
25.54
27.22
28.50
29.21
29.23
28.44
26.82
24.49
21.72
18.90
16.41
14.46
13.04
11.94
10.88
9.64
8.17
6.57
4.99
3.50
2.07
0.55
-1.24
-3.45
-6.13
-9.23
-12.57
-15.97
-19.24
-22.32
-25.25
-28.15
-31.14
-34.38
-37.96
-41.98
-46.43
-51.08
-55.36
-58.35
-59.03
-56.57
-50.72
-41.92
-31.23
-20.02
-9.58
-0.82
5.84
10.47
13.42
15.17
16.17
16.69
16.92
16.92
16.83
16.85
17.21
18.15
19.69
21.71
23.96
26.19
28.22
30.00
31.53
32.79
33.69
34.09
33.82
32.80
31.07
28.79
26.20
23.58
21.05
18.66
16.32
13.96
11.55
9.18
7.00
5.16
3.71
2.56
1.58
0.56
-0.64
-2.14
-3.97
-6.18
-8.80
-11.78
-15.06
-18.52
-21.98
-25.29
-28.39
-31.29
-34.20
-37.45
-41.30
-45.82
-50.74
-55.35
-58.66
-59.62
-57.40
-51.75
-43.07
-32.35
-20.88
-9.95
-0.54
6.76
11.80
14.79
16.12
16.33
15.95
15.49
15.32
15.64
16.44
17.60
19.00
20.51
22.13
23.89
25.79
27.76
29.71
31.48
32.95
34.03
34.65
34.73
34.19
32.97
31.10
28.72
26.03
23.30
20.68
18.28
16.10
14.11
12.24
10.40
8.60
6.83
5.10
3.43
1.79
0.10
-1.82
-4.12
-6.93
-10.19
-13.72
-17.23
-20.43
-23.19
-25.55
-27.82
-30.39
-33.62
-37.68
-42.39
-47.16
-51.09
-53.15
-52.45
-48.55
-41.63
-32.45
-22.19
-12.10
-3.19
4.00
9.36
13.15
15.67
17.21
17.99
18.22
18.18
18.17
18.48
19.25
20.41
21.75
23.03
24.07
24.83
25.44
26.00
26.64
27.33
27.97
28.40
28.45
27.98
26.94
25.38
23.43
21.34
19.39
17.83
16.76
16.10
15.61
14.97
13.89
12.29
10.31
8.23
6.36
4.82
3.48
2.04
0.16
-2.36
-5.46
-8.94
-12.51
-15.95
-19.12
-22.00
-24.66
-27.24
-30.02
-33.24
-37.05
-41.18
-44.95
-47.32
-47.19
-43.88
-37.42
-28.59
-18.60
-8.71
0.10
7.31
12.75
16.43
18.45
18.94
18.11
16.30
13.96
11.59
9.69
8.64
8.66
9.76
11.77
14.33
17.08
19.69
21.98
23.91
25.51
26.76
27.57
27.76
27.19
25.87
23.96
21.74
19.50
17.42
15.54
13.75
11.87
9.77
7.43
4.99
2.69
0.79
-0.58
-1.50
-2.22
-3.10
-4.41
-6.23
-8.39
-10.62
-12.60
-14.27
-15.75
-17.32
-19.37
-22.19
-25.94
-30.53
-35.56
-40.29
-43.71
-44.80
-42.82
-37.62
-29.76
-20.38
-10.80
-2.20
4.71
9.69
12.85
14.43
14.68
13.80
12.05
9.81
7.52
5.72
4.83
5.09
6.54
8.95
12.02
15.33
18.52
21.29
23.45
24.86
25.52
25.45
24.73
23.48
21.80
19.76
17.40
14.77
11.90
8.88
5.78
2.67
-0.37
-3.28
-5.95
-8.29
-10.25
-11.88
-13.26
-14.48
-15.65
-16.74
-17.77
-18.75
-19.80
-21.12
-22.96
-25.53
-28.86
-32.73
-36.59
-39.68
-41.18
-40.43
-37.10
-31.33
-23.70
-15.02
-6.25
1.76
8.36
13.19
16.16
17.44
17.36
16.30
14.64
12.73
10.87
9.37
8.52
8.54
9.50
11.29
13.61
16.07
18.32
20.09
21.30
21.92
21.96
21.39
20.20
18.42
16.20
13.69
11.10
8.58
6.22
4.06
2.11
0.41
-1.04
-2.24
-3.33
-4.50
-5.95
-7.83
-10.13
-12.73
-15.43
-18.01
-20.37
-22.58
-24.83
-27.44
-30.75
-34.96
-39.94
-45.10
-49.46
-51.87
-51.33
-47.37
-40.19
-30.65
-20.00
-9.57
-0.43
6.79
11.91
15.16
16.89
17.56
17.50
16.96
16.13
15.23
14.50
14.18
14.42
15.21
16.39
17.73
19.07
20.38
21.72
23.15
24.61
25.92
26.81
27.07
26.67
25.69
24.34
22.78
21.12
19.38
17.54
15.64
13.72
11.78
9.76
7.61
5.31
2.94
0.67
-1.36
-3.10
-4.61
-6.11
-7.80
-9.86
-12.34
-15.15
-18.16
-21.24
-24.25
-27.11
-29.81
-32.46
-35.32
-38.73
-42.97
-47.98
-53.28
-57.89
-60.60
-60.34
-56.49
-49.23
-39.34
-28.05
-16.67
-6.33
2.24
8.67
12.96
15.45
16.61
17.03
17.16
17.27
17.48
17.74
18.00
18.27
18.59
19.04
19.70
20.67
22.01
23.74
25.76
27.85
29.69
30.90
31.23
30.59
29.06
26.80
24.02
20.89
17.52
14.00
10.41
6.77
3.15
-0.46
-3.99
-7.36
-10.49
-13.34
-16.02
-18.72
-21.70
-25.17
-29.26
-33.99
-39.28
-44.99
-51.01
-57.20
-63.47
-69.85
-76.52
-83.82
-92.10
-101.59
-112.11
-122.98
-133.11
-141.21
-146.31
-148.01
-146.61
-143.01
-138.37
-133.68
-129.50
-125.87
-122.28
-117.86
-111.57
-102.38
-89.47
-72.36
-50.98
-25.78
2.32
32.02
61.82
90.15
115.67
137.33
154.50
166.95
174.82
178.55
178.73
176.04
171.13
164.54
156.70
147.98
138.71
129.22
119.82
110.78
102.18
93.99
86.07
78.31
70.66
63.20
56.09
49.57
43.77
38.69
34.09
29.63
24.97
19.91
14.50
8.96
3.57
-1.52
-6.31
-11.00
-15.87
-21.16
-27.05
-33.50
-40.13
-46.21
-50.69
-52.47
-50.76
-45.42
-37.06
-26.96
-16.57
-7.15
0.56
6.40
10.56
13.37
15.12
16.06
16.46
16.62
16.85
17.35
18.22
19.39
20.74
22.15
23.60
25.14
26.82
28.64
30.48
32.13
33.35
33.92
33.72
32.73
31.04
28.82
26.29
23.64
21.04
18.55
16.14
13.68
11.10
8.38
5.60
2.91
0.39
-1.97
-4.24
-6.48
-8.71
-10.83
-12.73
-14.41
-15.97
-17.63
-19.64
-22.20
-25.41
-29.28
-33.69
-38.36
-42.77
-46.16
-47.67
-46.57
-42.55
-35.83
-27.14
-17.51
-8.00
0.56
7.66
13.08
16.83
19.00
19.74
19.32
18.05
16.35
14.67
13.44
12.91
13.18
14.12
15.54
17.20
18.94
20.61
22.13
23.38
24.23
24.57
24.35
23.62
22.52
21.18
19.69
18.04
16.17
14.02
11.63
9.16
6.79
4.62
2.57
0.45
-1.93
-4.64
-7.58
-10.51
-13.19
-15.55
-17.64
-19.65
-21.79
-24.20
-27.04
-30.42
-34.37
-38.66
-42.73
-45.62
-46.33
-44.11
-38.78
-30.89
-21.53
-11.93
-3.24
3.83
8.98
12.27
13.92
14.24
13.57
12.22
10.53
8.83
7.47
6.77
6.99
8.26
10.50
13.39
16.47
19.29
21.50
22.94
23.62
23.59
22.95
21.79
20.19
18.25
16.11
13.83
11.44
8.95
6.36
3.76
1.30
-0.88
-2.70
-4.23
-5.64
-7.12
-8.79
-10.65
-12.68
-14.84
-17.14
-19.64
-22.44
-25.66
-29.43
-33.84
-38.78
-43.80
-48.12
-50.68
-50.48
-46.91
-40.08
-30.77
-20.22
-9.79
-0.53
6.95
12.47
16.17
18.27
19.01
18.67
17.59
16.19
14.97
14.36
14.62
15.71
17.40
19.32
21.20
22.90
24.44
25.90
27.26
28.39
29.04
28.97
28.02
26.21
23.70
20.79
17.78
14.91
12.32
9.97
7.73
5.43
2.96
0.29
-2.51
-5.30
-7.96
-10.46
-12.83
-15.23
-17.90
-21.14
-25.19
-30.05
-35.36
-40.35
-43.94
-45.07
-43.01
-37.68
-29.61
-19.87
-9.65
-0.03
8.24
14.76
19.41
22.28
23.59
23.67
22.92
21.75
20.52
19.45
18.67
18.21
18.08
18.23
18.67
19.36
20.25
21.27
22.26
23.07
23.48
23.32
22.51
21.10
19.22
17.08
14.81
12.48
10.09
7.54
4.76
1.73
-1.50
-4.77
-7.86
-10.55
-12.75
-14.50
-16.11
-18.04
-20.77
-24.64
-29.58
-35.09
-40.27
-44.06
-45.49
-43.98
-39.45
-32.29
-23.34
-13.63
-4.24
3.97
10.38
14.81
17.36
18.28
17.96
16.76
15.03
13.18
11.58
10.58
10.39
11.02
12.34
14.12
16.18
18.37
20.54
22.56
24.24
25.37
25.77
25.36
24.11
22.13
19.56
16.63
13.57
10.52
7.53
4.51
1.36
-1.92
-5.20
-8.27
-10.91
-13.06
-14.82
-16.44
-18.12
-20.04
-22.31
-25.03
-28.30
-32.11
-36.25
-40.16
-42.97
-43.75
-41.74
-36.78
-29.28
-20.21
-10.78
-2.03
5.33
11.03
15.10
17.69
19.00
19.20
18.50
17.22
15.73
14.41
13.53
13.23
13.53
14.40
15.76
17.53
19.55
21.60
23.42
24.79
25.52
25.55
24.86
23.47
21.49
19.05
16.31
13.37
10.29
7.05
3.64
0.09
-3.48
-6.91
-10.04
-12.81
-15.30
-17.73
-20.39
-23.56
-27.28
-31.30
-35.00
-37.49
-37.85
-35.45
-30.14
-22.44
-13.29
-3.91
4.61
11.50
16.39
19.33
20.58
20.52
19.50
17.86
15.87
13.81
11.99
10.69
10.12
10.39
11.42
12.97
14.73
16.36
17.64
18.45
18.74
18.50
17.75
16.49
14.78
12.79
10.69
8.62
6.64
4.64
2.46
-0.01
-2.80
-5.75
-8.61
-11.17
-13.33
-15.14
-16.80
-18.60
-20.86
-23.77
-27.31
-31.11
-34.48
-36.53
-36.40
-33.55
-27.95
-20.12
-11.06
-1.92
6.23
12.64
16.94
19.12
19.35
17.99
15.42
12.05
8.38
4.89
2.04
0.22
-0.41
0.11
1.60
3.76
6.25
8.71
10.84
12.32
12.96
12.68
11.57
9.82
7.62
5.15
2.47
-0.37
-3.35
-6.33
-9.16
-11.74
-14.04
-16.14
-18.16
-20.18
-22.28
-24.56
-27.14
-30.16
-33.53
-36.89
-39.51
-40.46
-38.95
-34.59
-27.67
-18.99
-9.70
-0.96
6.40
11.91
15.51
17.29
17.49
16.32
14.07
11.14
8.06
5.36
3.50
2.68
2.85
3.72
4.97
6.33
7.63
8.76
9.63
10.16
10.26
9.91
9.11
7.87
6.18
4.01
1.32
-1.82
-5.28
-8.81
-12.18
-15.27
-18.14
-21.00
-24.22
-28.11
-32.80
-38.10
-43.42
-47.84
-50.27
-49.84
-46.04
-38.99
-29.38
-18.33
-7.13
3.07
11.44
17.62
21.61
23.71
24.27
23.64
22.12
20.02
17.67
15.47
13.79
12.90
12.87
13.56
14.71
16.00
17.16
18.01
18.44
18.44
18.04
17.26
16.10
14.53
12.47
9.87
6.79
3.40
-0.04
-3.27
-6.17
-8.76
-11.21
-13.80
-16.81
-20.51
-25.07
-30.42
-36.13
-41.34
-44.94
-45.81
-43.20
-37.07
-28.12
-17.61
-6.96
2.67
10.55
16.43
20.44
22.81
23.78
23.59
22.47
20.74
18.78
16.97
15.68
15.15
15.48
16.58
18.21
20.03
21.75
23.12
24.07
24.64
24.87
24.74
24.13
22.83
20.63
17.49
13.53
9.05
4.45
0.07
-3.83
-7.18
-10.05
-12.67
-15.34
-18.44
-22.23
-26.84
-32.08
-37.36
-41.75
-44.18
-43.72
-39.90
-32.90
-23.55
-13.03
-2.60
6.74
14.36
19.98
23.52
25.07
24.83
23.16
20.62
17.85
15.49
13.96
13.46
13.94
15.26
17.22
19.62
22.21
24.69
26.70
27.94
28.21
27.53
26.06
24.01
21.53
18.70
15.53
12.09
8.51
4.90
1.42
-1.87
-4.97
-7.93
-10.77
-13.53
-16.27
-19.10
-22.26
-25.90
-29.98
-34.09
-37.36
-38.75
-37.30
-32.56
-24.79
-14.91
-4.29
5.72
14.08
20.28
24.30
26.38
26.82
25.89
23.88
21.15
18.21
15.63
13.95
13.51
14.29
16.00
18.18
20.38
22.34
23.96
25.21
26.06
26.37
25.95
24.67
22.57
19.91
17.03
14.25
11.74
9.43
7.11
4.62
1.82
-1.22
-4.39
-7.52
-10.48
-13.21
-15.69
-18.01
-20.39
-23.09
-26.33
-30.16
-34.26
-37.93
-40.22
-40.19
-37.21
-31.18
-22.62
-12.49
-1.98
7.78
15.94
21.93
25.56
26.87
26.11
23.70
20.23
16.33
12.69
9.85
8.15
7.68
8.27
9.63
11.40
13.30
15.12
16.70
17.91
18.62
18.72
18.14
16.89
15.06
12.78
10.17
7.32
4.26
0.94
-2.64
-6.46
-10.39
-14.20
-17.66
-20.60
-23.01
-25.15
-27.44
-30.27
-33.87
-37.99
-41.92
-44.60
-44.95
-42.26
-36.46
-28.15
-18.44
-8.60
0.29
7.49
12.67
15.80
17.03
16.61
14.87
12.20
9.11
6.12
3.74
2.35
2.15
3.09
4.96
7.42
10.08
12.58
14.68
16.25
17.18
17.44
16.98
15.80
13.91
11.41
8.50
5.39
2.25
-0.85
-3.91
-7.01
-10.21
-13.43
-16.53
-19.34
-21.79
-24.02
-26.42
-29.48
-33.51
-38.37
-43.28
-47.01
-48.23
-45.99
-40.13
-31.30
-20.78
-9.99
-0.13
8.09
14.35
18.68
21.18
22.04
21.51
19.98
17.89
15.71
13.78
12.29
11.28
10.76
10.78
11.38
12.51
14.02
15.57
16.82
17.47
17.45
16.83
15.72
14.19
12.19
9.63
6.46
2.75
-1.25
-5.26
-9.01
-12.38
-15.36
-18.04
-20.51
-22.88
-25.28
-27.93
-31.08
-34.91
-39.23
-43.35
-46.14
-46.31
-42.92
-35.79
-25.63
-13.83
-2.00
8.49
16.87
22.88
26.66
28.50
28.71
27.63
25.61
23.07
20.41
18.01
16.05
14.63
13.74
13.34
13.40
13.91
14.78
15.86
16.91
17.67
17.93
17.59
16.69
15.32
13.58
11.49
9.00
6.05
2.61
-1.25
-5.35
-9.41
-13.20
-16.49
-19.24
-21.58
-23.81
-26.34
-29.50
-33.35
-37.54
-41.29
-43.52
-43.18
-39.61
-32.81
-23.44
-12.70
-1.96
7.63
15.32
20.83
24.23
25.73
25.63
24.24
21.98
19.34
16.84
14.87
13.66
13.15
13.13
13.37
13.77
14.37
15.32
16.64
18.18
19.61
20.53
20.66
19.93
18.54
16.72
14.74
12.63
10.32
7.68
4.59
1.07
-2.74
-6.58
-10.15
-13.21
-15.64
-17.54
-19.23
-21.20
-23.91
-27.59
-32.04
-36.59
-40.22
-41.81
-40.45
-35.78
-28.09
-18.22
-7.41
3.07
12.14
19.10
23.68
25.93
26.20
24.94
22.69
19.99
17.31
15.00
13.29
12.24
11.78
11.82
12.28
13.13
14.35
15.90
17.64
19.30
20.56
21.11
20.78
19.58
17.69
15.34
12.75
10.10
7.45
4.86
2.32
-0.22
-2.86
-5.62
-8.49
-11.33
-13.96
-16.30
-18.42
-20.64
-23.32
-26.71
-30.72
-34.80
-38.03
-39.35
-37.96
-33.47
-26.11
-16.65
-6.21
3.99
12.83
19.54
23.74
25.48
25.15
23.35
20.68
17.66
14.69
12.07
10.02
8.74
8.33
8.73
9.74
11.05
12.39
13.59
14.60
15.41
15.99
16.14
15.67
14.40
12.41
9.93
7.32
4.87
2.66
0.61
-1.49
-3.82
-6.39
-9.03
-11.50
-13.60
-15.25
-16.65
-18.10
-19.97
-22.49
-25.63
-29.01
-32.02
-33.89
-33.89
-31.55
-26.80
-20.01
-11.89
-3.38
4.64
11.39
16.41
19.48
20.60
19.93
17.81
14.66
11.04
7.47
4.45
2.33
1.26
1.26
2.19
3.84
5.90
8.04
9.95
11.38
12.23
12.49
12.21
11.45
10.24
8.56
6.39
3.73
0.64
-2.77
-6.31
-9.78
-13.02
-15.96
-18.66
-21.24
-23.90
-26.77
-29.97
-33.49
-37.17
-40.67
-43.45
-44.79
-44.00
-40.59
-34.50
-26.15
-16.40
-6.34
3.00
10.79
16.60
20.34
22.15
22.31
21.14
18.96
16.09
12.90
9.81
7.28
5.69
5.22
5.81
7.16
8.82
10.34
11.42
11.95
11.90
11.37
10.40
8.99
7.09
4.68
1.80
-1.44
-4.83
-8.13
-11.16
-13.83
-16.19
-18.45
-20.83
-23.58
-26.93
-30.96
-35.58
-40.43
-44.85
-47.87
-48.51
-46.03
-40.23
-31.63
-21.31
-10.64
-0.83
7.34
13.58
17.99
20.80
22.20
22.32
21.27
19.25
16.62
13.87
11.48
9.88
9.29
9.71
10.98
12.79
14.76
16.60
18.07
19.02
19.34
18.98
17.89
16.08
13.60
10.54
7.03
3.23
-0.67
-4.46
-7.95
-11.02
-13.64
-15.97
-18.31
-21.02
-24.41
-28.66
-33.62
-38.79
-43.30
-46.03
-45.93
-42.36
-35.30
-25.47
-14.16
-2.80
7.38
15.64
21.73
25.76
27.85
28.22
27.06
24.74
21.81
18.92
16.66
15.36
15.07
15.55
16.51
17.61
18.64
19.46
19.98
20.16
20.01
19.59
18.96
18.14
17.07
15.63
13.68
11.15
8.05
4.53
0.80
-2.89
-6.32
-9.44
-12.36
-15.34
-18.77
-22.96
-27.98
-33.47
-38.70
-42.63
-44.20
-42.64
-37.73
-29.88
-20.02
-9.36
0.98
10.11
17.51
22.91
26.25
27.59
27.15
25.33
22.70
19.91
17.54
16.03
15.58
16.17
17.57
19.46
21.45
23.20
24.47
25.19
25.41
25.23
24.75
23.92
22.67
20.82
18.30
15.11
11.34
7.20
2.88
-1.43
-5.59
-9.51
-13.14
-16.47
-19.57
-22.58
-25.75
-29.22
-32.94
-36.50
-39.13
-39.85
-37.83
-32.67
-24.62
-14.54
-3.65
6.77
15.65
22.34
26.56
28.37
28.03
25.96
22.68
18.83
15.07
12.00
10.02
9.25
9.56
10.60
12.04
13.61
15.19
16.72
18.10
19.16
19.62
19.27
18.06
16.07
13.62
10.97
8.35
5.85
3.42
0.99
-1.52
-4.13
-6.81
-9.47
-12.05
-14.52
-17.01
-19.77
-23.06
-26.98
-31.20
-35.02
-37.41
-37.40
-34.41
-28.48
-20.24
-10.73
-1.06
7.79
15.09
20.39
23.47
24.37
23.35
20.91
17.68
14.35
11.53
9.66
8.95
9.34
10.59
12.30
14.06
15.54
16.58
17.14
17.31
17.12
16.59
15.64
14.24
12.38
10.16
7.70
5.09
2.41
-0.31
-3.04
-5.72
-8.31
-10.79
-13.17
-15.60
-18.25
-21.39
-25.21
-29.69
-34.45
-38.74
-41.53
-41.80
-38.93
-32.92
-24.38
-14.43
-4.33
4.84
12.36
17.89
21.39
22.98
22.88
21.43
19.06
16.29
13.67
11.63
10.46
10.19
10.71
11.87
13.53
15.55
17.76
19.91
21.65
22.64
22.63
21.63
19.86
17.63
15.29
13.02
10.82
8.52
5.87
2.76
-0.78
-4.50
-8.05
-11.12
-13.62
-15.72
-17.78
-20.26
-23.41
-27.22
-31.30
-34.94
-37.25
-37.37
-34.73
-29.24
-21.32
-11.84
-1.91
7.41
15.26
21.13
24.82
26.35
25.96
24.05
21.11
17.71
14.41
11.62
9.66
8.67
8.66
9.51
11.01
12.88
14.81
16.54
17.88
18.74
19.06
18.81
17.93
16.38
14.23
11.59
8.72
5.84
3.12
0.61
-1.80
-4.23
-6.81
-9.51
-12.21
-14.75
-17.08
-19.32
-21.77
-24.71
-28.14
-31.60
-34.19
-34.82
-32.61
-27.32
-19.45
-10.11
-0.65
7.75
14.29
18.68
20.97
21.39
20.27
17.98
14.95
11.70
8.76
6.52
5.24
4.92
5.42
6.49
7.90
9.43
10.91
12.16
13.02
13.41
13.27
12.64
11.59
10.15
8.32
6.13
3.66
1.04
-1.54
-3.95
-6.13
-8.08
-9.87
-11.59
-13.33
-15.19
-17.38
-20.07
-23.35
-27.04
-30.63
-33.31
-34.16
-32.51
-28.12
-21.34
-13.02
-4.27
3.84
10.53
15.38
18.34
19.55
19.22
17.56
14.84
11.38
7.60
4.00
1.04
-0.90
-1.69
-1.40
-0.27
1.39
3.27
5.10
6.68
7.85
8.50
8.54
7.93
6.65
4.77
2.38
-0.36
-3.27
-6.17
-8.93
-11.51
-13.93
-16.28
-18.62
-21.03
-23.61
-26.48
-29.70
-33.21
-36.62
-39.25
-40.22
-38.77
-34.51
-27.67
-19.05
-9.77
-0.99
6.39
11.81
15.15
16.53
16.25
14.65
12.11
9.03
5.81
2.94
0.86
-0.11
0.05
1.10
2.55
3.98
5.13
6.03
6.90
7.88
8.92
9.68
9.72
8.65
6.38
3.18
-0.48
-4.09
-7.32
-10.10
-12.63
-15.21
-18.16
-21.76
-26.18
-31.38
-37.06
-42.58
-46.98
-49.13
-48.10
-43.45
-35.47
-25.14
-13.89
-3.11
6.07
13.06
17.75
20.35
21.25
20.91
19.80
18.40
17.13
16.31
16.13
16.61
17.59
18.85
20.06
20.95
21.34
21.17
20.54
19.62
18.55
17.36
15.89
13.92
11.25
7.89
4.06
0.14
-3.49
-6.64
-9.39
-12.00
-14.80
-18.09
-22.06
-26.76
-32.01
-37.40
-42.16
-45.26
-45.64
-42.57
-35.96
-26.43
-15.24
-3.81
6.58
15.10
21.44
25.60
27.84
28.46
27.82
26.28
24.23
22.06
20.17
18.86
18.35
18.69
19.75
21.19
22.64
23.76
24.35
24.43
24.13
23.54
22.65
21.32
19.32
16.53
13.04
9.12
5.19
1.61
-1.40
-3.85
-5.94
-8.00
-10.43
-13.61
-17.81
-23.06
-28.98
-34.72
-39.06
-40.75
-38.96
-33.56
-25.23
-15.24
-4.95
4.44
12.24
18.17
22.27
24.66
25.57
25.25
24.02
22.25
20.36
18.67
17.48
16.95
17.16
18.08
19.52
21.18
22.74
23.90
24.50
24.45
23.82
22.70
21.17
19.25
16.91
14.12
10.89
7.37
3.78
0.35
-2.76
-5.56
-8.17
-10.80
-13.64
-16.83
-20.46
-24.52
-28.86
-33.07
-36.41
-37.94
-36.75
-32.35
-24.95
-15.45
-5.17
4.51
12.62
18.71
22.77
25.07
25.88
25.40
23.79
21.36
18.55
15.93
14.04
13.22
13.51
14.68
16.31
17.96
19.28
20.07
20.27
19.96
19.19
18.02
16.46
14.50
12.14
9.47
6.57
3.56
0.51
-2.57
-5.67
-8.75
-11.65
-14.18
-16.24
-17.92
-19.56
-21.64
-24.52
-28.22
-32.18
-35.41
-36.68
-35.00
-29.98
-21.93
-11.85
-1.04
9.18
17.78
24.12
28.00
29.54
29.08
27.11
24.16
20.77
17.45
14.59
12.47
11.27
11.01
11.58
12.79
14.35
15.97
17.43
18.61
19.44
19.86
19.76
19.05
17.67
15.69
13.27
10.67
8.07
5.53
2.96
0.23
-2.71
-5.73
-8.60
-11.10
-13.15
-14.94
-16.81
-19.20
-22.38
-26.30
-30.54
-34.28
-36.52
-36.31
-33.09
-26.93
-18.49
-8.92
0.45
8.54
14.67
18.61
20.48
20.61
19.38
17.20
14.49
11.65
9.07
7.04
5.76
5.26
5.48
6.23
7.27
8.36
9.29
9.91
10.17
10.05
9.59
8.85
7.88
6.66
5.15
3.25
0.89
-1.91
-5.00
-8.09
-10.90
-13.25
-15.14
-16.75
-18.33
-20.06
-22.01
-24.19
-26.58
-29.12
-31.67
-33.78
-34.79
-33.90
-30.48
-24.39
-16.16
-6.86
2.18
9.81
15.36
18.63
19.84
19.40
17.70
15.03
11.74
8.24
5.10
2.87
1.96
2.49
4.22
6.63
9.16
11.36
12.95
13.89
14.23
14.03
13.30
12.01
10.13
7.71
4.88
1.83
-1.24
-4.23
-7.10
-9.88
-12.59
-15.24
-17.74
-20.00
-21.99
-23.86
-25.87
-28.32
-31.40
-34.90
-38.23
-40.43
-40.49
-37.64
-31.68
-23.09
-12.97
-2.68
6.48
13.65
18.50
21.14
21.94
21.30
19.57
17.02
13.94
10.69
7.66
5.22
3.66
3.08
3.46
4.66
6.45
8.54
10.61
12.35
13.52
14.01
13.78
12.91
11.52
9.73
7.63
5.28
2.72
-0.03
-2.91
-5.87
-8.82
-11.67
-14.35
-16.83
-19.14
-21.41
-23.83
-26.60
-29.83
-33.30
-36.52
-38.65
-38.84
-36.42
-31.23
-23.67
-14.69
-5.45
2.98
9.80
14.70
17.70
19.08
19.11
18.08
16.18
13.57
10.50
7.31
4.45
2.34
1.29
1.38
2.48
4.26
6.33
8.35
10.05
11.26
11.92
12.00
11.50
10.49
9.10
7.45
5.70
3.89
2.01
-0.01
-2.26
-4.70
-7.25
-9.81
-12.31
-14.79
-17.44
-20.48
-24.10
-28.28
-32.72
-36.77
-39.58
-40.30
-38.28
-33.38
-26.06
-17.20
-7.96
0.56
7.55
12.55
15.44
16.37
15.65
13.69
10.97
7.97
5.18
3.01
1.76
1.61
2.53
4.31
6.67
9.23
11.64
13.62
15.02
15.80
15.95
15.52
14.51
12.94
10.85
8.35
5.55
2.59
-0.41
-3.36
-6.20
-8.86
-11.31
-13.55
-15.65
-17.78
-20.19
-23.13
-26.72
-30.77
-34.78
-37.92
-39.23
-37.96
-33.71
-26.69
-17.67
-7.77
1.81
10.09
16.45
20.64
22.78
23.15
22.12
20.02
17.22
14.05
10.90
8.20
6.31
5.49
5.84
7.20
9.22
11.48
13.60
15.32
16.54
17.23
17.40
17.06
16.20
14.84
13.04
10.88
8.46
5.84
3.06
0.14
-2.85
-5.88
-8.85
-11.74
-14.56
-17.47
-20.69
-24.41
-28.70
-33.22
-37.30
-39.92
-40.08
-37.18
-31.17
-22.73
-12.99
-3.20
5.62
12.80
18.10
21.47
23.04
22.97
21.50
19.00
15.92
12.80
10.16
8.41
7.75
8.19
9.55
11.51
13.70
15.79
17.55
18.84
19.62
19.87
19.59
18.75
17.34
15.38
12.91
10.05
6.91
3.65
0.37
-2.83
-5.86
-8.67
-11.24
-13.65
-16.07
-18.75
-21.97
-25.81
-30.05
-33.98
-36.61
-36.92
-34.15
-28.25
-19.81
-10.00
-0.13
8.69
15.77
20.87
24.00
25.29
24.85
22.84
19.56
15.54
11.52
8.26
6.35
6.00
6.99
8.83
10.97
13.03
14.89
16.56
18.10
19.43
20.33
20.54
19.89
18.35
16.07
13.24
10.04
6.63
3.18
-0.16
-3.22
-5.94
-8.37
-10.71
-13.22
-16.12
-19.54
-23.41
-27.47
-31.19
-33.82
-34.55
-32.75
-28.14
-21.02
-12.19
-2.79
6.04
13.45
18.99
22.59
24.37
24.55
23.33
20.94
17.70
14.10
10.70
8.10
6.73
6.75
8.02
10.17
12.69
15.10
17.04
18.32
18.89
18.76
17.99
16.69
14.98
12.96
10.73
8.32
5.70
2.82
-0.31
-3.60
-6.85
-9.89
-12.58
-14.95
-17.20
-19.64
-22.52
-25.88
-29.41
-32.42
-34.04
-33.39
-29.96
-23.82
-15.61
-6.40
2.64
10.51
16.59
20.60
22.56
22.64
21.08
18.26
14.64
10.81
7.36
4.77
3.34
3.10
3.90
5.46
7.43
9.48
11.30
12.65
13.41
13.58
13.22
12.43
11.16
9.33
6.84
3.70
0.16
-3.42
-6.65
-9.30
-11.42
-13.27
-15.17
-17.39
-20.11
-23.36
-27.12
-31.21
-35.20
-38.37
-39.78
-38.58
-34.38
-27.45
-18.76
-9.58
-1.08
5.99
11.41
15.25
17.61
18.48
17.82
15.76
12.78
9.60
7.05
5.65
5.52
6.37
7.72
9.15
10.44
11.57
12.56
13.48
14.28
14.84
15.00
14.56
13.36
11.27
8.34
4.73
0.77
-3.22
-6.95
-10.31
-13.35
-16.36
-19.72
-23.82
-28.93
-34.89
-41.08
-46.35
-49.40
-49.14
-45.10
-37.63
-27.75
-16.86
-6.28
3.02
10.55
16.11
19.75
21.57
21.75
20.56
18.45
15.95
13.67
12.06
11.38
11.63
12.56
13.82
15.09
16.21
17.18
18.08
18.93
19.65
20.00
19.67
18.43
16.21
13.11
9.39
5.39
1.37
-2.50
-6.13
-9.55
-12.82
-16.09
-19.60
-23.61
-28.27
-33.50
-38.78
-43.16
-45.51
-44.81
-40.52
-32.86
-22.76
-11.61
-0.87
8.32
15.38
20.18
22.99
24.20
24.18
23.26
21.73
19.93
18.24
17.02
16.57
16.99
18.16
19.72
21.22
22.21
22.47
21.98
21.04
19.99
19.10
18.39
17.58
16.24
14.02
10.88
7.09
3.16
-0.48
-3.61
-6.27
-8.70
-11.18
-13.92
-17.10
-20.92
-25.48
-30.74
-36.23
-41.08
-44.11
-44.17
-40.57
-33.41
-23.49
-12.20
-1.00
8.88
16.70
22.19
25.50
26.93
26.90
25.83
24.09
22.11
20.31
19.01
18.44
18.61
19.40
20.57
21.87
23.10
24.12
24.84
25.16
25.02
24.37
23.20
21.51
19.32
16.66
13.54
10.07
6.31
2.44
-1.40
-5.05
-8.40
-11.34
-13.82
-15.86
-17.65
-19.47
-21.72
-24.73
-28.55
-32.86
-36.87
-39.53
-39.74
-36.82
-30.69
-21.98
-11.83
-1.54
7.80
15.48
21.26
25.20
27.46
28.25
27.84
26.54
24.81
23.13
21.92
21.40
21.64
22.56
23.97
25.64
27.33
28.81
29.88
30.41
30.40
29.93
29.12
28.05
26.74
25.14
23.22
21.03
18.69
16.39
14.30
12.53
11.06
9.79
8.57
7.32
5.99
4.60
3.27
2.08
1.09
0.28
-0.45
-1.31
-2.50
-4.20
-6.39
-8.97
-11.72
-14.43
-16.98
-19.38
-21.72
-24.19
-27.00
-30.39
-34.51
-39.37
-44.63
-49.54
-53.01
-53.86
-51.23
-44.89
-35.40
-23.97
-12.06
-1.04
8.10
14.85
19.14
21.19
21.35
20.07
17.84
15.25
12.87
11.21
10.64
11.21
12.76
14.89
17.17
19.25
20.97
22.32
23.37
24.15
24.63
24.69
24.19
23.05
21.30
19.05
16.50
13.91
11.42
9.10
6.90
4.70
2.37
-0.16
-2.89
-5.72
-8.51
-11.12
-13.40
-15.25
-16.59
-17.49
-18.11
-18.76
-19.85
-21.77
-24.79
-28.88
-33.66
-38.28
-41.60
-42.44
-39.98
-34.10
-25.48
-15.38
-5.23
3.79
11.06
16.48
20.21
22.47
23.34
22.88
21.28
18.98
16.60
14.77
13.93
14.16
15.24
16.71
18.13
19.20
19.87
20.28
20.62
20.96
21.16
20.92
19.87
17.83
14.90
11.48
8.13
5.30
3.13
1.45
-0.12
-1.97
-4.25
-6.87
-9.50
-11.82
-13.62
-14.96
-16.12
-17.43
-19.16
-21.49
-24.46
-28.06
-32.17
-36.46
-40.34
-42.91
-43.20
-40.54
-34.75
-26.41
-16.61
-6.65
2.41
9.89
15.61
19.62
22.08
23.08
22.69
21.08
18.56
15.60
12.77
10.57
9.34
9.14
9.82
11.05
12.49
13.87
15.07
16.07
16.86
17.40
17.53
17.13
16.16
14.72
13.01
11.24
9.51
7.77
5.84
3.56
0.83
-2.29
-5.64
-8.98
-12.09
-14.83
-17.14
-19.10
-20.92
-22.95
-25.55
-28.94
-32.96
-37.02
-40.20
-41.48
-40.06
-35.74
-28.89
-20.39
-11.34
-2.78
4.54
10.19
14.05
16.22
16.89
16.32
14.80
12.68
10.37
8.26
6.75
6.10
6.44
7.66
9.45
11.45
13.27
14.69
15.63
16.14
16.31
16.18
15.67
14.67
13.06
10.80
7.96
4.68
1.18
-2.37
-5.82
-9.08
-12.04
-14.67
-16.98
-19.06
-21.08
-23.25
-25.78
-28.78
-32.08
-35.20
-37.37
-37.73
-35.63
-30.83
-23.73
-15.24
-6.48
1.48
7.92
12.59
15.56
17.05
17.30
16.50
14.82
12.53
10.04
7.86
6.46
6.12
6.81
8.24
9.93
11.44
12.49
13.01
13.07
12.79
12.21
11.25
9.77
7.68
4.99
1.87
-1.39
-4.52
-7.33
-9.82
-12.06
-14.19
-16.34
-18.64
-21.22
-24.25
-27.87
-32.01
-36.27
-39.85
-41.75
-41.11
-37.49
-31.14
-22.86
-13.77
-5.02
2.56
8.48
12.62
15.08
16.09
15.90
14.77
12.98
10.81
8.64
6.84
5.78
5.69
6.61
8.35
10.52
12.67
14.42
15.59
16.17
16.31
16.09
15.54
14.49
12.73
10.10
6.61
2.46
-1.91
-6.07
-9.69
-12.66
-15.12
-17.35
-19.70
-22.49
-25.93
-30.05
-34.64
-39.14
-42.64
-44.10
-42.66
-37.99
-30.42
-20.97
-10.96
-1.66
6.06
11.84
15.71
17.90
18.68
18.27
16.91
14.95
12.86
11.15
10.21
10.18
10.94
12.16
13.52
14.80
15.96
17.05
18.12
19.08
19.69
19.66
18.72
16.74
13.81
10.14
6.07
1.92
-2.03
-5.61
-8.79
-11.67
-14.48
-17.46
-20.84
-24.78
-29.24
-33.96
-38.30
-41.41
-42.35
-40.41
-35.42
-27.82
-18.60
-8.96
0.01
7.64
13.59
17.77
20.24
21.07
20.46
18.73
16.38
13.96
11.95
10.66
10.17
10.50
11.53
13.10
14.94
16.75
18.19
19.04
19.28
19.03
18.46
17.66
16.53
14.81
12.30
8.99
5.15
1.21
-2.37
-5.38
-7.91
-10.24
-12.69
-15.48
-18.64
-22.12
-25.82
-29.57
-33.00
-35.45
-36.04
-33.93
-28.69
-20.61
-10.68
-0.36
8.97
16.35
21.45
24.47
25.83
25.91
24.92
22.98
20.29
17.29
14.57
12.78
12.31
13.17
14.97
17.12
19.00
20.25
20.83
20.82
20.41
19.67
18.58
17.04
14.96
12.38
9.38
6.18
2.96
-0.06
-2.77
-5.12
-7.18
-9.11
-11.11
-13.42
-16.24
-19.70
-23.73
-28.03
-31.96
-34.69
-35.30
-33.11
-27.94
-20.24
-10.99
-1.40
7.40
14.64
19.98
23.38
24.97
24.99
23.69
21.43
18.69
16.02
13.95
12.91
13.01
14.12
15.90
17.96
19.99
21.77
23.22
24.28
24.92
25.04
24.55
23.33
21.37
18.75
15.62
12.20
8.70
5.29
2.02
-1.06
-4.00
-6.84
-9.61
-12.34
-15.12
-18.11
-21.44
-25.09
-28.76
-31.82
-33.42
-32.74
-29.29
-23.13
-14.88
-5.58
3.66
11.87
18.41
23.02
25.74
26.73
26.24
24.60
22.17
19.42
16.84
14.90
13.83
13.74
14.46
15.72
17.21
18.61
19.67
20.20
20.08
19.31
17.97
16.26
14.35
12.36
10.30
8.17
5.93
3.64
1.40
-0.76
-2.84
-4.86
-6.88
-8.93
-11.04
-13.28
-15.84
-18.90
-22.58
-26.68
-30.63
-33.59
-34.70
-33.35
-29.37
-23.14
-15.39
-7.04
0.99
7.95
13.31
16.77
18.30
18.06
16.42
13.87
11.00
8.37
6.41
5.38
5.35
6.22
7.77
9.72
11.79
13.71
15.23
16.15
16.35
15.81
14.64
13.02
11.14
9.09
6.82
4.25
1.31
-1.93
-5.26
-8.42
-11.16
-13.35
-15.03
-16.41
-17.76
-19.39
-21.54
-24.32
-27.59
-30.96
-33.73
-35.04
-34.11
-30.51
-24.33
-16.19
-7.07
1.95
9.94
16.30
20.77
23.35
24.13
23.33
21.22
18.17
14.68
11.27
8.46
6.59
5.83
6.11
7.20
8.80
10.63
12.46
14.08
15.34
16.07
16.21
15.72
14.70
13.26
11.47
9.30
6.68
3.59
0.15
-3.38
-6.72
-9.68
-12.27
-14.69
-17.21
-20.15
-23.64
-27.68
-32.05
-36.20
-39.37
-40.62
-39.16
-34.63
-27.32
-18.12
-8.30
0.90
8.61
14.38
18.19
20.19
20.62
19.73
17.85
15.40
12.88
10.78
9.44
8.95
9.24
10.11
11.33
12.69
13.99
15.01
15.56
15.57
15.09
14.27
13.20
11.89
10.21
7.99
5.19
1.99
-1.28
-4.23
-6.65
-8.54
-10.10
-11.60
-13.28
-15.34
-17.96
-21.24
-25.19
-29.46
-33.36
-35.88
-36.01
-33.08
-27.05
-18.57
-8.81
0.94
9.58
16.44
21.29
24.23
25.51
25.48
24.39
22.52
20.16
17.62
15.25
13.45
12.46
12.38
13.05
14.16
15.35
16.36
17.08
17.52
17.72
17.67
17.27
16.33
14.73
12.44
9.56
6.28
2.81
-0.64
-3.95
-7.03
-9.91
-12.60
-15.18
-17.70
-20.26
-22.93
-25.79
-28.78
-31.63
-33.80
-34.55
-33.18
-29.31
-23.11
-15.25
-6.80
1.15
7.76
12.61
15.67
17.09
17.12
15.92
13.73
10.85
7.76
4.99
3.02
2.10
2.21
3.08
4.35
5.67
6.84
7.75
8.41
8.85
9.06
9.02
8.64
7.81
6.44
4.51
2.07
-0.71
-3.64
-6.55
-9.30
-11.85
-14.24
-16.51
-18.76
-21.14
-23.81
-26.94
-30.51
-34.22
-37.41
-39.24
-38.90
-35.94
-30.45
-23.05
-14.74
-6.54
0.76
6.70
11.13
14.10
15.64
15.74
14.44
11.94
8.68
5.34
2.69
1.28
1.35
2.68
4.80
7.13
9.25
10.95
12.15
12.85
12.98
12.47
11.27
9.39
6.97
4.19
1.25
-1.70
-4.59
-7.36
-9.99
-12.50
-14.89
-17.20
-19.55
-22.10
-25.01
-28.45
-32.37
-36.39
-39.79
-41.59
-40.90
-37.19
-30.56
-21.74
-11.84
-2.07
6.58
13.50
18.44
21.41
22.56
22.12
20.41
17.87
15.04
12.47
10.64
9.81
10.00
10.97
12.34
13.70
14.80
15.54
15.98
16.17
16.16
15.85
15.07
13.68
11.65
9.09
6.23
3.30
0.50
-2.09
-4.49
-6.75
-8.93
-11.09
-13.33
-15.81
-18.76
-22.38
-26.72
-31.42
-35.69
-38.47
-38.66
-35.56
-29.19
-20.33
-10.28
-0.46
7.99
14.42
18.67
20.90
21.44
20.64
18.87
16.52
14.01
11.76
10.10
9.26
9.32
10.19
11.66
13.50
15.49
17.41
19.11
20.46
21.33
21.59
21.14
19.94
17.99
15.36
12.13
8.44
4.48
0.45
-3.43
-6.99
-10.12
-12.84
-15.26
-17.66
-20.28
-23.38
-27.05
-31.09
-34.96
-37.81
-38.75
-37.02
-32.33
-24.97
-15.72
-5.69
3.98
12.38
18.95
23.50
26.10
26.98
26.47
24.91
22.69
20.19
17.81
15.95
14.86
14.63
15.17
16.23
17.52
18.79
19.88
20.69
21.17
21.27
20.88
19.93
18.42
16.46
14.16
11.63
8.87
5.81
2.43
-1.19
-4.82
-8.20
-11.15
-13.66
-15.94
-18.36
-21.22
-24.69
-28.64
-32.60
-35.89
-37.71
-37.39
-34.56
-29.26
-22.02
-13.66
-5.14
2.66
9.07
13.70
16.41
17.29
16.56
14.58
11.79
8.74
6.00
4.09
3.30
3.67
4.95
6.72
8.54
10.06
11.08
11.58
11.60
11.25
10.61
9.71
8.57
7.11
5.28
3.06
0.51
-2.19
-4.85
-7.37
-9.71
-11.92
-14.07
-16.23
-18.45
-20.87
-23.66
-26.87
-30.32
-33.44
-35.42
-35.41
-32.86
-27.75
-20.61
-12.36
-4.01
3.62
10.00
14.89
18.21
20.03
20.45
19.61
17.79
15.36
12.77
10.47
8.83
8.08
8.18
8.93
9.96
10.92
11.58
11.87
11.89
11.71
11.35
10.70
9.63
8.12
6.28
4.41
2.75
1.46
0.47
-0.39
-1.39
-2.66
-4.32
-6.44
-9.15
-12.63
-16.97
-22.02
-27.29
-31.95
-34.99
-35.50
-33.00
-27.53
-19.82
-10.99
-2.32
5.13
10.78
14.54
16.70
17.66
17.69
16.89
15.31
13.13
10.75
8.73
7.60
7.60
8.68
10.49
12.59
14.63
16.37
17.71
18.59
18.95
18.74
17.91
16.40
14.19
11.30
7.82
3.96
0.00
-3.73
-7.04
-9.85
-12.32
-14.70
-17.29
-20.31
-23.87
-27.94
-32.31
-36.48
-39.82
-41.56
-41.03
-37.84
-32.04
-24.14
-15.03
-5.75
2.75
9.77
14.99
18.37
20.10
20.47
19.73
18.14
15.99
13.67
11.65
10.35
10.05
10.72
12.07
13.60
14.86
15.54
15.66
15.38
14.96
14.51
13.96
13.11
11.66
9.45
6.53
3.15
-0.41
-3.88
-7.15
-10.28
-13.34
-16.42
-19.55
-22.76
-26.08
-29.54
-33.01
-36.05
-37.98
-37.95
-35.30
-29.83
-22.00
-12.79
-3.44
4.95
11.68
16.51
19.56
21.08
21.33
20.48
18.73
16.40
13.98
12.04
11.03
11.13
12.16
13.71
15.33
16.72
17.79
18.63
19.31
19.82
19.97
19.48
18.11
15.78
12.61
8.90
5.04
1.39
-1.78
-4.39
-6.52
-8.31
-9.99
-11.82
-14.06
-16.91
-20.43
-24.47
-28.53
-31.84
-33.54
-32.94
-29.81
-24.44
-17.58
-10.21
-3.20
2.82
7.51
10.74
12.54
12.94
12.08
10.22
7.82
5.44
3.65
2.93
3.47
5.17
7.64
10.33
12.69
14.37
15.22
15.37
15.04
14.44
13.69
12.73
11.41
9.57
7.17
4.32
1.24
-1.81
-4.62
-7.15
-9.47
-11.76
-14.22
-17.02
-20.24
-23.77
-27.30
-30.34
-32.23
-32.35
-30.30
-26.03
-19.90
-12.66
-5.19
1.70
7.37
11.50
13.97
14.84
14.28
12.56
10.09
7.44
5.22
3.98
3.96
5.10
6.97
9.04
10.81
12.04
12.75
13.11
13.26
13.15
12.54
11.05
8.49
4.93
0.74
-3.51
-7.30
-10.33
-12.60
-14.40
-16.09
-18.06
-20.57
-23.73
-27.43
-31.32
-34.78
-36.99
-37.14
-34.64
-29.40
-21.90
-13.09
-4.08
4.13
10.88
15.94
19.36
21.34
22.09
21.81
20.72
19.14
17.43
16.00
15.14
14.96
15.35
16.07
16.84
17.50
17.91
18.08
17.99
17.55
16.65
15.08
12.76
9.73
6.24
2.67
-0.61
-3.38
-5.65
-7.68
-9.84
-12.52
-15.96
-20.17
-24.90
-29.59
-33.49
-35.73
-35.54
-32.50
-26.71
-18.79
-9.76
-0.74
7.34
13.93
18.85
22.17
24.07
24.69
24.24
22.98
21.35
19.79
18.72
18.32
18.50
18.97
19.45
19.77
19.97
20.19
20.51
20.80
20.76
20.03
18.35
15.70
12.34
8.60
4.88
1.39
-1.80
-4.72
-7.50
-10.28
-13.23
-16.56
-20.47
-24.94
-29.68
-34.04
-37.11
-37.96
-35.98
-31.05
-23.66
-14.79
-5.55
3.06
10.37
16.06
20.13
22.70
23.94
24.01
23.09
21.50
19.62
17.90
16.74
16.35
16.71
17.63
18.78
19.90
20.80
21.45
21.87
22.07
22.00
21.50
20.40
18.58
16.05
13.02
9.73
6.43
3.27
0.26
-2.63
-5.48
-8.37
-11.39
-14.63
-18.16
-21.93
-25.65
-28.79
-30.63
-30.45
-27.81
-22.72
-15.68
-7.60
0.47
7.64
13.31
17.31
19.75
20.89
20.93
20.04
18.40
16.30
14.19
12.60
11.94
12.33
13.57
15.23
16.84
18.08
18.80
19.02
18.78
18.12
17.06
15.63
13.91
11.97
9.85
7.55
5.05
2.39
-0.29
-2.84
-5.10
-7.09
-8.95
-10.96
-13.40
-16.45
-20.07
-23.95
-27.48
-29.95
-30.64
-29.06
-25.06
-18.97
-11.45
-3.38
4.35
11.00
16.07
19.34
20.82
20.71
19.33
17.09
14.43
11.78
9.60
8.22
7.86
8.53
10.04
11.96
13.83
15.24
15.98
16.05
15.60
14.78
13.65
12.13
10.08
7.44
4.30
0.92
-2.35
-5.25
-7.66
-9.65
-11.43
-13.21
-15.14
-17.35
-19.90
-22.87
-26.20
-29.64
-32.63
-34.33
-33.89
-30.72
-24.78
-16.70
-7.59
1.32
9.02
15.00
19.15
21.66
22.73
22.51
21.15
18.89
16.15
13.50
11.44
10.27
9.99
10.37
11.11
11.96
12.79
13.60
14.32
14.92
15.31
15.42
15.19
14.60
13.65
12.33
10.69
8.78
6.68
4.46
2.19
-0.08
-2.32
-4.50
-6.62
-8.77
-11.09
-13.76
-16.84
-20.14
-23.18
-25.24
-25.57
-23.61
-19.21
-12.75
-5.02
2.92
10.05
15.63
19.31
21.12
21.36
20.41
18.60
16.17
13.32
10.32
7.50
5.25
3.86
3.46
3.87
4.77
5.75
6.54
7.04
7.31
7.44
7.46
7.26
6.70
5.65
4.08
2.06
-0.31
-2.89
-5.52
-8.03
-10.23
-11.99
-13.30
-14.33
-15.39
-16.86
-19.07
-22.17
-26.06
-30.30
-34.19
-36.84
-37.36
-35.17
-30.18
-22.92
-14.39
-5.82
1.73
7.60
11.69
14.22
15.55
15.91
15.41
14.12
12.17
9.94
7.92
6.60
6.23
6.72
7.76
8.90
9.83
10.39
10.55
10.37
9.91
9.19
8.21
6.99
5.56
3.90
2.02
-0.03
-2.20
-4.34
-6.37
-8.23
-9.98
-11.69
-13.45
-15.29
-17.21
-19.27
-21.52
-23.98
-26.50
-28.66
-29.80
-29.23
-26.51
-21.65
-15.14
-7.86
-0.76
5.40
10.20
13.49
15.29
15.66
14.67
12.40
9.09
5.16
1.17
-2.30
-4.80
-6.09
-6.21
-5.38
-3.98
-2.40
-0.97
0.11
0.79
1.08
1.04
0.65
-0.10
-1.26
-2.76
-4.53
-6.42
-8.28
-10.06
-11.77
-13.39
-14.90
-16.25
-17.43
-18.57
-19.94
-21.83
-24.33
-27.17
-29.71
-31.11
-30.67
-28.07
-23.49
-17.52
-10.95
-4.54
1.14
5.73
8.98
10.78
11.08
10.02
7.86
5.01
1.94
-0.90
-3.12
-4.47
-4.85
-4.33
-3.12
-1.58
-0.05
1.14
1.86
2.15
2.13
1.93
1.60
1.06
0.15
-1.23
-3.08
-5.24
-7.47
-9.57
-11.49
-13.37
-15.47
-18.05
-21.25
-25.06
-29.20
-33.24
-36.55
-38.50
-38.47
-36.10
-31.36
-24.64
-16.63
-8.24
-0.43
6.03
10.61
13.14
13.77
12.88
11.00
8.62
6.19
4.02
2.34
1.38
1.28
2.03
3.46
5.21
6.87
8.14
8.88
9.20
9.25
9.10
8.63
7.60
5.75
2.99
-0.51
-4.35
-8.05
-11.23
-13.72
-15.64
-17.34
-19.26
-21.79
-25.13
-29.16
-33.48
-37.36
-39.97
-40.52
-38.52
-33.93
-27.19
-19.11
-10.71
-2.89
3.65
8.57
11.82
13.52
13.93
13.32
11.95
10.16
8.33
6.84
6.02
6.05
6.86
8.21
9.74
11.17
12.38
13.47
14.56
15.70
16.71
17.23
16.86
15.38
12.85
9.61
6.16
2.88
-0.03
-2.60
-5.04
-7.59
-10.47
-13.85
-17.84
-22.44
-27.44
-32.28
-36.09
-37.87
-36.76
-32.45
-25.34
-16.42
-6.99
1.79
9.18
14.88
18.92
21.42
22.48
22.18
20.71
18.46
15.98
13.90
12.73
12.75
13.94
16.02
18.56
21.09
23.18
24.60
25.29
25.32
24.77
23.72
22.14
19.98
17.25
14.05
10.56
7.01
3.61
0.46
-2.37
-4.94
-7.34
-9.80
-12.60
-15.99
-20.06
-24.54
-28.81
-31.95
-33.04
-31.47
-27.12
-20.45
-12.31
-3.65
4.65
11.97
17.89
22.18
24.74
25.57
24.85
22.97
20.47
17.98
15.99
14.92
14.85
15.65
17.01
18.53
19.87
20.80
21.25
21.30
21.07
20.64
20.02
19.13
17.86
16.11
13.85
11.16
8.19
5.18
2.36
-0.11
-2.19
-3.97
-5.63
-7.43
-9.65
-12.47
-15.89
-19.71
-23.38
-26.09
-26.97
-25.37
-21.15
-14.76
-7.13
0.60
7.47
12.87
16.58
18.64
19.22
18.53
16.81
14.40
11.79
9.52
8.05
7.63
8.22
9.57
11.29
13.02
14.53
15.76
16.77
17.62
18.31
18.74
18.69
17.96
16.40
14.01
10.95
7.51
4.04
0.82
-2.02
-4.52
-6.86
-9.22
-11.80
-14.70
-17.97
-21.54
-25.21
-28.58
-31.00
-31.72
-30.09
-25.80
-19.10
-10.77
-1.95
6.19
12.72
17.20
19.66
20.49
20.21
19.32
18.14
16.82
15.46
14.18
13.16
12.59
12.62
13.26
14.35
15.61
16.78
17.68
18.25
18.51
18.49
18.17
17.46
16.20
14.29
11.75
8.74
5.51
2.31
-0.70
-3.49
-6.17
-8.87
-11.70
-14.70
-17.95
-21.50
-25.35
-29.35
-33.01
-35.58
-36.17
-34.11
-29.18
-21.88
-13.24
-4.52
3.20
9.31
13.72
16.72
18.65
19.72
19.96
19.36
18.02
16.21
14.42
13.12
12.65
13.05
14.10
15.41
16.60
17.45
17.95
18.19
18.33
18.33
18.06
17.32
15.98
14.11
11.88
9.48
7.03
4.52
1.89
-0.89
-3.72
-6.48
-9.07
-11.51
-13.97
-16.70
-19.92
-23.70
-27.77
-31.59
-34.34
-35.15
-33.37
-28.84
-22.04
-13.89
-5.58
1.87
7.83
12.10
14.79
16.14
16.41
15.82
14.64
13.15
11.64
10.42
9.70
9.61
10.14
11.17
12.49
13.84
15.01
15.85
16.32
16.43
16.18
15.50
14.27
12.39
9.88
6.91
3.72
0.58
-2.35
-5.03
-7.52
-9.91
-12.25
-14.54
-16.80
-19.04
-21.36
-23.90
-26.74
-29.80
-32.74
-34.95
-35.63
-34.09
-29.99
-23.53
-15.46
-6.83
1.29
8.14
13.29
16.71
18.51
18.90
18.09
16.32
13.95
11.45
9.32
7.95
7.53
7.98
9.01
10.25
11.38
12.25
12.84
13.20
13.38
13.31
12.88
12.01
10.65
8.82
6.61
4.12
1.39
-1.53
-4.61
-7.72
-10.74
-13.48
-15.88
-17.97
-19.91
-21.95
-24.29
-27.03
-30.01
-32.83
-34.81
-35.25
-33.56
-29.53
-23.45
-15.97
-7.99
-0.40
6.12
11.18
14.64
16.52
16.97
16.21
14.58
12.53
10.53
9.01
8.25
8.36
9.19
10.53
12.03
13.42
14.47
15.06
15.15
14.78
14.00
12.93
11.64
10.14
8.43
6.40
3.94
1.01
-2.36
-5.96
-9.48
-12.58
-15.02
-16.77
-18.05
-19.26
-20.87
-23.21
-26.33
-29.84
-33.01
-34.87
-34.56
-31.56
-25.92
-18.21
-9.45
-0.77
6.83
12.71
16.64
18.69
19.14
18.27
16.38
13.79
10.90
8.19
6.12
5.00
4.96
5.88
7.44
9.27
11.02
12.42
13.35
13.75
13.66
13.14
12.24
11.02
9.43
7.42
4.96
2.09
-1.06
-4.26
-7.24
-9.80
-11.83
-13.38
-14.60
-15.73
-17.10
-18.95
-21.46
-24.56
-27.84
-30.60
-31.96
-31.15
-27.76
-21.95
-14.40
-6.13
1.79
8.48
13.44
16.52
17.83
17.67
16.37
14.29
11.83
9.41
7.42
6.20
5.88
6.43
7.61
9.09
10.55
11.83
12.87
13.74
14.47
15.00
15.15
14.76
13.68
11.92
9.59
6.86
3.86
0.72
-2.40
-5.36
-8.00
-10.31
-12.40
-14.52
-16.97
-19.93
-23.39
-27.10
-30.63
-33.36
-34.68
-33.94
-30.74
-25.07
-17.45
-8.86
-0.47
6.69
12.03
15.44
17.15
17.50
16.76
15.10
12.72
9.98
7.39
5.51
4.72
5.08
6.35
8.03
9.69
11.05
12.06
12.77
13.25
13.50
13.41
12.84
11.72
10.07
7.99
5.62
3.05
0.40
-2.20
-4.60
-6.68
-8.42
-9.84
-11.18
-12.70
-14.75
-17.56
-21.14
-25.16
-28.94
-31.55
-32.10
-30.04
-25.41
-18.78
-11.11
-3.44
3.45
9.12
13.45
16.45
18.18
18.65
17.85
15.94
13.22
10.19
7.40
5.33
4.23
4.06
4.50
5.18
5.75
6.11
6.29
6.46
6.68
6.88
6.78
6.11
4.68
2.50
-0.17
-3.02
-5.71
-8.08
-10.13
-11.99
-13.87
-15.99
-18.48
-21.46
-24.92
-28.72
-32.50
-35.63
-37.35
-36.87
-33.75
-27.97
-20.13
-11.17
-2.19
5.88
12.47
17.39
20.65
22.40
22.79
21.99
20.23
17.85
15.23
12.82
10.98
9.97
9.86
10.51
11.62
12.89
14.09
15.06
15.76
16.15
16.10
15.41
13.88
11.43
8.17
4.40
0.50
-3.23
-6.53
-9.32
-11.67
-13.71
-15.69
-17.92
-20.68
-24.11
-28.08
-32.09
-35.35
-36.99
-36.25
-32.79
-26.77
-18.87
-10.04
-1.26
6.68
13.26
18.25
21.59
23.25
23.29
21.89
19.40
16.40
13.56
11.51
10.63
10.95
12.20
13.93
15.72
17.19
18.14
18.53
18.38
17.80
16.88
15.68
14.17
12.29
9.92
7.00
3.66
0.11
-3.32
-6.36
-8.89
-10.98
-12.88
-14.94
-17.47
-20.69
-24.58
-28.78
-32.64
-35.29
-35.89
-33.88
-29.21
-22.32
-14.08
-5.50
2.51
9.28
14.44
17.83
19.49
19.56
18.30
16.10
13.45
10.86
8.76
7.53
7.33
8.10
9.59
11.38
13.08
14.38
15.17
15.48
15.44
15.10
14.40
13.18
11.28
8.70
5.58
2.21
-1.10
-4.11
-6.77
-9.10
-11.23
-13.29
-15.41
-17.78
-20.52
-23.67
-27.04
-30.14
-32.23
-32.52
-30.42
-25.81
-19.09
-11.11
-2.85
4.78
11.17
16.04
19.29
20.98
21.23
20.23
18.31
15.87
13.39
11.34
10.06
9.73
10.32
11.63
13.30
14.93
16.16
16.82
16.91
16.59
16.02
15.28
14.29
12.89
10.94
8.38
5.36
2.12
-1.03
-3.92
-6.52
-8.95
-11.41
-14.16
-17.38
-21.16
-25.37
-29.65
-33.37
-35.72
-35.90
-33.42
-28.27
-21.02
-12.62
-4.18
3.40
9.57
14.18
17.32
19.12
19.71
19.23
17.87
15.99
14.05
12.52
11.81
12.08
13.27
15.12
17.29
19.42
21.24
22.57
23.31
23.41
22.84
21.59
19.68
17.17
14.18
10.91
7.55
4.30
1.32
-1.30
-3.57
-5.62
-7.59
-9.67
-12.05
-14.87
-18.16
-21.87
-25.72
-29.19
-31.52
-31.92
-29.78
-24.92
-17.77
-9.26
-0.53
7.37
13.77
18.50
21.69
23.59
24.43
24.31
23.36
21.84
20.16
18.82
18.21
18.53
19.61
21.09
22.56
23.68
24.32
24.51
24.35
23.79
22.71
20.91
18.25
14.77
10.70
6.39
2.21
-1.57
-4.83
-7.58
-9.87
-11.80
-13.46
-14.94
-16.44
-18.14
-20.23
-22.79
-25.69
-28.58
-30.85
-31.82
-30.93
-27.91
-22.89
-16.47
-9.42
-2.54
3.58
8.62
12.54
15.36
17.11
17.77
17.30
15.85
13.80
11.69
10.10
9.45
9.87
11.13
12.87
14.63
16.14
17.30
18.12
18.67
18.95
18.84
18.20
16.92
15.03
12.69
10.07
7.40
4.75
2.18
-0.33
-2.78
-5.17
-7.48
-9.73
-11.93
-14.15
-16.48
-19.04
-21.90
-24.97
-27.86
-29.96
-30.54
-29.03
-25.24
-19.52
-12.62
-5.48
1.08
6.47
10.47
13.03
14.22
14.20
13.14
11.33
9.17
7.10
5.55
4.83
5.08
6.25
8.10
10.35
12.66
14.77
16.44
17.49
17.80
17.33
16.16
14.42
12.30
10.00
7.65
5.29
2.88
0.40
-2.14
-4.65
-7.00
-9.12
-11.04
-12.89
-14.86
-17.20
-20.05
-23.43
-27.08
-30.50
-32.93
-33.62
-31.98
-27.84
-21.59
-14.01
-6.12
1.14
7.15
11.59
14.46
15.90
16.08
15.20
13.49
11.31
9.07
7.19
6.01
5.70
6.21
7.31
8.69
10.05
11.20
12.07
12.69
13.11
13.28
13.14
12.48
11.19
9.22
6.62
3.61
0.41
-2.76
-5.76
-8.50
-10.93
-13.04
-14.86
-16.50
-18.18
-20.16
-22.65
-25.60
-28.64
-31.11
-32.22
-31.31
-28.10
-22.72
-15.77
-8.11
-0.61
5.97
11.10
14.55
16.33
16.62
15.73
14.04
11.95
9.86
8.14
7.07
6.80
7.32
8.47
9.97
11.49
12.74
13.53
13.80
13.60
13.03
12.17
11.01
9.48
7.50
5.05
2.27
-0.59
-3.24
-5.48
-7.27
-8.75
-10.12
-11.60
-13.39
-15.66
-18.55
-22.04
-25.89
-29.59
-32.45
-33.74
-32.92
-29.86
-24.81
-18.44
-11.53
-4.87
0.94
5.55
8.85
10.89
11.82
11.79
10.99
9.67
8.20
6.97
6.41
6.76
8.00
9.86
11.89
13.65
14.88
15.55
15.78
15.69
15.32
14.59
13.33
11.45
9.00
6.14
3.12
0.16
-2.60
-5.15
-7.49
-9.71
-11.91
-14.26
-16.94
-20.12
-23.81
-27.76
-31.45
-34.18
-35.24
-34.15
-30.82
-25.56
-18.99
-11.87
-4.95
1.20
6.16
9.70
11.75
12.42
11.97
10.74
9.10
7.39
5.91
4.90
4.52
4.86
5.82
7.21
8.72
10.07
11.07
11.70
12.04
12.21
12.17
11.79
10.83
9.09
6.51
3.24
-0.38
-3.96
-7.12
-9.71
-11.73
-13.37
-14.89
-16.61
-18.77
-21.47
-24.56
-27.59
-29.90
-30.67
-29.32
-25.59
-19.73
-12.38
-4.42
3.27
9.98
15.20
18.69
20.39
20.43
19.10
16.82
14.10
11.46
9.33
8.03
7.68
8.19
9.33
10.78
12.24
13.49
14.43
15.02
15.26
15.10
14.43
13.16
11.25
8.76
5.90
2.94
0.16
-2.28
-4.41
-6.41
-8.56
-11.15
-14.33
-18.09
-22.22
-26.33
-29.85
-32.15
-32.64
-30.91
-26.91
-21.00
-13.86
-6.38
0.62
6.56
11.14
14.36
16.34
17.24
17.19
16.25
14.58
12.47
10.43
9.00
8.64
9.44
11.13
13.13
14.81
15.78
15.98
15.69
15.25
14.86
14.48
13.78
12.41
10.17
7.18
3.82
0.54
-2.32
-4.66
-6.60
-8.43
-10.39
-12.69
-15.44
-18.72
-22.43
-26.27
-29.70
-31.88
-32.05
-29.71
-24.85
-18.02
-10.16
-2.26
4.80
10.49
14.58
17.14
18.40
18.66
18.20
17.27
16.11
14.99
14.18
13.97
14.51
15.75
17.42
19.14
20.51
21.31
21.52
21.29
20.79
20.10
19.17
17.83
15.92
13.34
10.20
6.74
3.28
0.11
-2.61
-4.93
-7.02
-9.13
-11.50
-14.30
-17.60
-21.28
-25.02
-28.29
-30.38
-30.61
-28.47
-23.89
-17.24
-9.30
-1.03
6.59
12.86
17.40
20.14
21.33
21.29
20.45
19.11
17.52
15.92
14.56
13.72
13.59
14.22
15.37
16.71
17.86
18.56
18.76
18.56
18.05
17.29
16.20
14.68
12.66
10.17
7.32
4.29
1.27
-1.59
-4.22
-6.58
-8.71
-10.72
-12.71
-14.81
-17.13
-19.73
-22.63
-25.64
-28.37
-30.19
-30.39
-28.40
-24.06
-17.73
-10.20
-2.47
4.60
10.44
14.83
17.74
19.20
19.27
18.06
15.84
13.08
10.32
8.12
6.79
6.46
7.01
8.21
9.77
11.42
12.89
13.95
14.46
14.35
13.71
12.67
11.35
9.80
8.01
5.97
3.70
1.30
-1.13
-3.54
-5.91
-8.27
-10.62
-12.93
-15.16
-17.36
-19.67
-22.27
-25.18
-28.14
-30.58
-31.67
-30.65
-27.12
-21.24
-13.71
-5.61
1.97
8.23
12.78
15.65
17.10
17.45
16.89
15.59
13.69
11.48
9.35
7.74
6.96
7.06
7.83
8.91
9.93
10.70
11.19
11.52
11.80
11.96
11.87
11.28
10.08
8.30
6.09
3.64
1.08
-1.55
-4.27
-7.05
-9.76
-12.21
-14.27
-15.95
-17.54
-19.44
-21.98
-25.21
-28.73
-31.71
-33.20
-32.40
-29.01
-23.34
-16.17
-8.52
-1.30
4.87
9.65
13.00
15.00
15.75
15.38
14.09
12.13
9.84
7.63
5.88
4.93
4.90
5.72
7.12
8.73
10.18
11.26
11.95
12.30
12.38
12.16
11.53
10.36
8.65
6.55
4.30
2.13
0.14
-1.73
-3.63
-5.68
-7.89
-10.15
-12.36
-14.48
-16.63
-19.00
-21.73
-24.72
-27.55
-29.52
-29.86
-27.99
-23.74
-17.53
-10.20
-2.79
3.78
8.91
12.44
14.49
15.33
15.14
14.02
12.03
9.38
6.48
3.85
2.02
1.27
1.52
2.42
3.44
4.19
4.52
4.52
4.39
4.26
4.11
3.71
2.81
1.17
-1.25
-4.34
-7.86
-11.55
-15.20
-18.62
-21.75
-24.59
-27.27
-29.97
-32.93
-36.36
-40.37
-44.99
-50.10
-55.38
-60.35
-64.38
-66.92
-67.66
-66.70
-64.60
-62.17
-60.25
-59.49
-60.23
-62.58
-66.50
-71.94
-78.80
-86.84
-95.63
-104.56
-112.84
-119.71
-124.44
-126.50
-125.37
-120.54
-111.59
-98.22
-80.41
-58.56
-33.52
-6.49
21.12
47.84
72.35
93.52
110.59
123.13
131.12
134.85
134.91
131.96
126.72
119.84
111.83
103.04
93.71
83.99
74.07
64.33
55.37
47.96
42.82
40.31
40.26
41.93
44.29
46.40
47.65
47.82
46.96
45.17
42.45
38.80
34.29
29.23
24.15
19.65
16.26
14.18
13.27
13.17
13.38
13.51
13.36
12.96
12.46
12.00
11.56
11.00
10.05
8.49
6.26
3.48
0.40
-2.67
-5.53
-8.09
-10.42
-12.70
-15.16
-18.03
-21.47
-25.44
-29.71
-33.74
-36.79
-38.05
-36.88
-33.08
-27.00
-19.42
-11.39
-3.86
2.49
7.40
10.82
12.85
13.62
13.25
12.00
10.25
8.50
7.24
6.79
7.21
8.30
9.68
10.99
11.98
12.57
12.83
12.89
12.83
12.61
12.02
10.82
8.81
6.00
2.60
-1.03
-4.48
-7.56
-10.22
-12.71
-15.31
-18.32
-21.84
-25.80
-29.90
-33.64
-36.40
-37.50
-36.42
-32.93
-27.23
-19.91
-11.83
-3.89
3.19
8.94
13.20
16.00
17.47
17.83
17.33
16.32
15.19
14.29
13.88
14.03
14.65
15.55
16.51
17.37
18.08
18.68
19.24
19.79
20.25
20.42
20.05
18.87
16.76
13.79
10.26
6.53
2.91
-0.48
-3.79
-7.27
-11.19
-15.69
-20.61
-25.57
-29.99
-33.21
-34.61
-33.69
-30.25
-24.44
-16.79
-8.18
0.44
8.19
14.52
19.15
22.13
23.60
23.78
22.93
21.45
19.81
18.54
18.07
18.58
19.86
21.49
22.98
24.01
24.49
24.51
24.24
23.76
23.05
22.03
20.58
18.62
16.08
12.97
9.39
5.61
1.99
-1.08
-3.43
-5.20
-6.80
-8.78
-11.53
-15.04
-18.84
-22.14
-24.09
-24.04
-21.72
-17.28
-11.23
-4.31
2.67
8.98
14.03
17.54
19.49
20.10
19.70
18.67
17.34
16.02
15.00
14.50
14.67
15.50
16.80
18.29
19.69
20.76
21.39
21.54
21.22
20.42
19.17
17.46
15.36
12.91
10.24
7.45
4.62
1.81
-0.98
-3.73
-6.53
-9.48
-12.70
-16.23
-19.95
-23.47
-26.14
-27.20
-25.96
-22.12
-15.95
-8.22
-0.04
7.51
13.67
18.14
20.96
22.42
22.72
22.03
20.44
18.14
15.44
12.85
10.89
9.88
9.86
10.55
11.49
12.26
12.67
12.80
12.85
12.97
13.11
12.97
12.19
10.53
8.04
5.03
1.99
-0.69
-2.83
-4.52
-6.02
-7.65
-9.62
-12.04
-14.88
-18.01
-21.19
-24.04
-26.07
-26.73
-25.52
-22.22
-16.98
-10.36
-3.20
3.60
9.34
13.62
16.35
17.71
17.96
17.35
16.14
14.57
12.90
11.39
10.27
9.68
9.62
9.93
10.41
10.85
11.10
11.10
10.88
10.52
10.08
9.57
8.92
7.95
6.49
4.45
1.86
-1.09
-4.09
-6.86
-9.18
-11.04
-12.63
-14.25
-16.21
-18.69
-21.61
-24.62
-27.16
-28.60
-28.42
-26.35
-22.44
-17.01
-10.64
-4.00
2.23
7.45
11.30
13.66
14.64
14.53
13.64
12.27
10.66
8.99
7.49
6.37
5.83
5.96
6.68
7.71
8.73
9.43
9.69
9.56
9.21
8.81
8.39
7.91
7.24
6.26
4.91
3.26
1.42
-0.46
-2.27
-3.98
-5.61
-7.24
-9.01
-11.02
-13.39
-16.16
-19.29
-22.60
-25.76
-28.25
-29.46
-28.85
-26.19
-21.59
-15.63
-9.12
-2.92
2.31
6.18
8.59
9.68
9.65
8.81
7.45
5.96
4.69
3.95
3.84
4.28
5.05
5.89
6.66
7.27
7.74
8.06
8.16
7.96
7.42
6.57
5.54
4.41
3.24
1.99
0.57
-1.08
-2.90
-4.80
-6.66
-8.39
-9.99
-11.49
-12.97
-14.49
-16.11
-17.90
-19.92
-22.11
-24.28
-26.01
-26.78
-26.15
-23.85
-20.00
-15.02
-9.49
-4.02
0.96
5.22
8.68
11.32
13.08
13.89
13.67
12.50
10.59
8.39
6.33
4.84
4.10
4.05
4.46
4.99
5.39
5.53
5.46
5.28
5.08
4.86
4.50
3.82
2.69
1.07
-1.00
-3.35
-5.77
-8.06
-10.01
-11.48
-12.38
-12.71
-12.61
-12.35
-12.27
-12.72
-13.85
-15.55
-17.45
-18.93
-19.36
-18.24
-15.42
-11.08
-5.74
-0.11
5.13
9.42
12.46
14.17
14.65
14.13
12.90
11.25
9.48
7.82
6.48
5.58
5.17
5.20
5.50
5.88
6.16
6.26
6.22
6.11
6.01
5.88
5.55
4.82
3.57
1.75
-0.48
-2.90
-5.29
-7.47
-9.36
-10.94
-12.24
-13.36
-14.39
-15.46
-16.68
-18.16
-19.98
-22.09
-24.32
-26.30
-27.50
-27.36
-25.45
-21.68
-16.39
-10.29
-4.18
1.25
5.63
8.87
11.08
12.33
12.58
11.76
9.93
7.39
4.69
2.42
1.08
0.82
1.51
2.73
4.06
5.17
5.92
6.37
6.62
6.76
6.80
6.61
6.05
5.02
3.54
1.70
-0.32
-2.35
-4.30
-6.15
-7.92
-9.65
-11.36
-13.03
-14.68
-16.41
-18.38
-20.70
-23.33
-25.94
-27.92
-28.57
-27.35
-24.11
-19.17
-13.21
-7.02
-1.27
3.57
7.33
9.94
11.42
11.79
11.13
9.63
7.57
5.39
3.56
2.47
2.33
3.10
4.54
6.28
7.98
9.45
10.65
11.56
12.13
12.22
11.65
10.32
8.24
5.64
2.80
0.02
-2.51
-4.74
-6.70
-8.47
-10.10
-11.60
-13.03
-14.49
-16.14
-18.17
-20.65
-23.42
-26.05
-27.94
-28.45
-27.11
-23.85
-18.98
-13.13
-7.01
-1.32
3.48
7.12
9.53
10.71
10.75
9.78
8.02
5.82
3.61
1.86
0.93
0.94
1.80
3.21
4.79
6.16
7.15
7.73
8.05
8.28
8.47
8.50
8.10
7.01
5.12
2.57
-0.25
-2.91
-5.09
-6.73
-8.05
-9.41
-11.12
-13.34
-16.04
-19.07
-22.21
-25.20
-27.70
-29.30
-29.53
-28.01
-24.62
-19.60
-13.52
-7.11
-1.07
4.07
8.02
10.63
11.86
11.69
10.30
8.03
5.47
3.26
1.88
1.54
2.07
3.14
4.38
5.60
6.76
7.92
9.08
10.17
10.94
11.12
10.52
9.04
6.76
3.89
0.72
-2.48
-5.47
-8.16
-10.59
-12.91
-15.37
-18.18
-21.46
-25.14
-28.85
-31.99
-33.78
-33.54
-30.86
-25.79
-18.86
-10.92
-2.93
4.29
10.20
14.60
17.51
19.02
19.32
18.62
17.13
15.17
13.13
11.43
10.39
10.15
10.59
11.40
12.22
12.82
13.15
13.34
13.54
13.75
13.79
13.40
12.35
10.60
8.28
5.63
2.88
0.19
-2.36
-4.74
-7.03
-9.44
-12.31
-15.92
-20.27
-24.90
-28.89
-31.10
-30.63
-27.18
-21.17
-13.51
-5.27
2.65
9.71
15.64
20.27
23.48
25.14
25.27
24.12
22.20
20.14
18.49
17.58
17.45
17.84
18.44
18.97
19.35
19.65
19.99
20.46
20.97
21.27
21.05
20.05
18.12
15.37
12.07
8.54
5.08
1.90
-0.96
-3.58
-6.14
-8.86
-11.94
-15.43
-19.16
-22.73
-25.49
-26.72
-25.82
-22.57
-17.18
-10.35
-2.95
4.15
10.32
15.25
18.83
21.14
22.29
22.39
21.60
20.17
18.43
16.78
15.59
15.11
15.43
16.43
17.86
19.38
20.71
21.66
22.17
22.27
22.01
21.39
20.35
18.79
16.70
14.14
11.36
8.60
6.07
3.79
1.62
-0.67
-3.27
-6.29
-9.69
-13.33
-17.01
-20.36
-22.96
-24.26
-23.77
-21.20
-16.64
-10.57
-3.76
2.93
8.80
13.45
16.76
18.81
19.76
19.75
18.95
17.61
16.06
14.73
13.96
13.94
14.56
15.56
16.57
17.39
17.92
18.20
18.31
18.21
17.78
16.91
15.53
13.65
11.40
8.89
6.19
3.38
0.50
-2.35
-4.98
-7.25
-9.08
-10.49
-11.65
-12.82
-14.30
-16.35
-18.99
-21.99
-24.80
-26.68
-26.92
-25.09
-21.20
-15.71
-9.38
-3.03
2.63
7.13
10.27
12.01
12.44
11.81
10.41
8.65
6.97
5.74
5.19
5.39
6.23
7.48
8.88
10.18
11.19
11.82
12.07
12.01
11.64
10.96
9.93
8.49
6.64
4.45
2.04
-0.43
-2.81
-4.98
-6.86
-8.46
-9.81
-11.03
-12.25
-13.63
-15.36
-17.55
-20.19
-23.03
-25.61
-27.27
-27.36
-25.43
-21.42
-15.71
-9.06
-2.34
3.68
8.51
11.97
14.15
15.25
15.47
15.01
14.06
12.82
11.52
10.41
9.68
9.40
9.59
10.13
10.87
11.67
12.38
12.88
13.10
12.98
12.51
11.73
10.70
9.49
8.14
6.65
4.95
2.98
0.73
-1.74
-4.28
-6.70
-8.79
-10.55
-12.10
-13.75
-15.81
-18.50
-21.79
-25.39
-28.78
-31.30
-32.31
-31.32
-28.15
-22.98
-16.40
-9.24
-2.42
3.30
7.46
9.95
10.96
10.81
9.89
8.54
7.07
5.71
4.64
3.94
3.60
3.61
3.94
4.59
5.60
6.91
8.43
9.97
11.29
12.20
12.57
12.38
11.64
10.40
8.69
6.56
4.10
1.47
-1.14
-3.60
-5.78
-7.70
-9.43
-11.07
-12.74
-14.49
-16.45
-18.69
-21.28
-24.08
-26.76
-28.68
-29.15
-27.60
-23.83
-18.15
-11.32
-4.27
2.15
7.37
11.24
13.80
15.25
15.73
15.34
14.20
12.55
10.76
9.27
8.46
8.41
8.97
9.80
10.54
10.97
11.08
11.02
10.95
10.95
10.96
10.83
10.39
9.52
8.21
6.53
4.57
2.38
0.02
-2.52
-5.19
-7.87
-10.40
-12.60
-14.37
-15.73
-16.87
-18.07
-19.59
-21.51
-23.63
-25.43
-26.21
-25.34
-22.53
-17.90
-12.00
-5.59
0.57
5.89
10.00
12.73
14.08
14.13
13.05
11.12
8.67
6.06
3.67
1.81
0.71
0.47
1.05
2.15
3.46
4.64
5.46
5.89
6.04
6.00
5.84
5.51
4.90
3.94
2.63
1.03
-0.77
-2.70
-4.71
-6.76
-8.78
-10.68
-12.40
-13.95
-15.43
-17.01
-18.91
-21.26
-24.01
-26.82
-29.14
-30.27
-29.60
-26.87
-22.18
-16.09
-9.34
-2.73
3.16
7.93
11.42
13.57
14.35
13.83
12.15
9.61
6.68
3.90
1.77
0.61
0.50
1.22
2.41
3.66
4.68
5.36
5.74
5.94
6.09
6.24
6.26
6.03
5.34
4.08
2.30
0.14
-2.14
-4.31
-6.26
-7.97
-9.56
-11.19
-12.99
-15.10
-17.60
-20.55
-23.86
-27.27
-30.31
-32.29
-32.50
-30.46
-26.07
-19.76
-12.36
-4.88
1.77
6.99
10.57
12.57
13.23
12.80
11.50
9.57
7.29
5.05
3.27
2.27
2.21
2.99
4.32
5.84
7.29
8.55
9.64
10.60
11.40
11.91
11.93
11.36
10.25
8.74
7.01
5.16
3.18
0.98
-1.47
-4.12
-6.85
-9.58
-12.25
-15.00
-18.01
-21.46
-25.35
-29.42
-33.11
-35.62
-36.18
-34.31
-29.98
-23.68
-16.25
-8.64
-1.64
4.31
9.06
12.61
15.00
16.20
16.18
14.99
12.86
10.30
7.88
6.15
5.43
5.76
6.87
8.40
10.00
11.46
12.67
13.61
14.26
14.60
14.56
14.14
13.32
12.07
10.39
8.25
5.67
2.72
-0.44
-3.59
-6.54
-9.21
-11.68
-14.22
-17.18
-20.77
-24.98
-29.35
-33.14
-35.42
-35.44
-32.86
-27.83
-20.95
-13.08
-5.09
2.28
8.54
13.40
16.74
18.53
18.83
17.80
15.69
12.98
10.25
8.13
7.09
7.36
8.79
10.92
13.13
14.94
16.06
16.51
16.50
16.21
15.71
14.93
13.76
12.16
10.16
7.94
5.66
3.41
1.21
-1.00
-3.27
-5.60
-8.05
-10.65
-13.48
-16.65
-20.18
-23.92
-27.48
-30.20
-31.34
-30.30
-26.85
-21.24
-14.20
-6.64
0.54
6.73
11.60
15.06
17.07
17.65
16.83
14.86
12.15
9.33
6.98
5.53
5.13
5.66
6.86
8.45
10.16
11.80
13.19
14.22
14.81
14.90
14.44
13.43
11.87
9.81
7.32
4.54
1.64
-1.23
-3.92
-6.35
-8.47
-10.35
-12.15
-14.11
-16.53
-19.51
-22.92
-26.28
-28.80
-29.65
-28.24
-24.39
-18.46
-11.16
-3.36
4.15
10.79
16.17
20.04
22.23
22.65
21.44
18.90
15.60
12.23
9.46
7.78
7.38
8.16
9.75
11.64
13.35
14.54
15.11
15.17
14.95
14.61
14.18
13.50
12.36
10.57
8.08
4.96
1.42
-2.25
-5.82
-9.08
-12.01
-14.72
-17.43
-20.43
-23.92
-27.85
-31.84
-35.15
-36.88
-36.18
-32.61
-26.26
-17.80
-8.30
1.13
9.54
16.36
21.37
24.60
26.15
26.17
24.85
22.54
19.70
16.95
14.88
13.92
14.20
15.51
17.39
19.24
20.59
21.21
21.12
20.53
19.67
18.61
17.26
15.43
12.96
9.84
6.24
2.46
-1.18
-4.45
-7.29
-9.76
-12.04
-14.35
-16.92
-19.92
-23.41
-27.23
-30.90
-33.67
-34.66
-33.09
-28.61
-21.45
-12.43
-2.64
6.75
14.92
21.41
26.08
28.99
30.20
29.77
27.88
24.88
21.37
18.04
15.57
14.35
14.40
15.37
16.76
18.08
19.02
19.51
19.65
19.57
19.30
18.74
17.75
16.16
13.93
11.15
8.05
4.88
1.85
-0.91
-3.39
-5.68
-7.88
-10.20
-12.90
-16.26
-20.42
-25.33
-30.49
-35.04
-37.88
-38.01
-34.89
-28.61
-19.91
-9.99
-0.13
8.62
15.63
20.66
23.77
25.15
25.07
23.80
21.76
19.39
17.18
15.52
14.70
14.76
15.58
16.92
18.42
19.80
20.82
21.37
21.42
21.04
20.33
19.27
17.81
15.81
13.20
9.97
6.27
2.33
-1.54
-5.10
-8.17
-10.65
-12.60
-14.16
-15.61
-17.26
-19.42
-22.25
-25.56
-28.80
-31.07
-31.47
-29.28
-24.36
-17.17
-8.64
0.06
7.91
14.23
18.74
21.40
22.33
21.72
19.81
17.00
13.81
10.89
8.77
7.76
7.85
8.82
10.35
12.14
13.98
15.74
17.29
18.47
19.13
19.16
18.52
17.26
15.40
12.99
10.08
6.81
3.37
-0.01
-3.13
-5.92
-8.44
-10.82
-13.22
-15.76
-18.55
-21.71
-25.28
-29.18
-33.02
-36.15
-37.79
-37.23
-34.07
-28.39
-20.76
-12.05
-3.25
4.79
11.49
16.51
19.78
21.36
21.41
20.17
18.01
15.42
12.89
10.90
9.74
9.43
9.81
10.55
11.38
12.08
12.54
12.72
12.61
12.21
11.54
10.58
9.33
7.74
5.75
3.35
0.58
-2.41
-5.40
-8.12
-10.44
-12.32
-13.89
-15.41
-17.19
-19.53
-22.59
-26.32
-30.34
-33.99
-36.37
-36.63
-34.23
-29.13
-21.85
-13.33
-4.61
3.41
10.14
15.28
18.78
20.69
21.15
20.34
18.58
16.23
13.80
11.74
10.40
9.94
10.32
11.29
12.53
13.73
14.66
15.20
15.33
15.10
14.58
13.77
12.62
10.97
8.70
5.73
2.20
-1.64
-5.41
-8.76
-11.51
-13.70
-15.62
-17.66
-20.20
-23.47
-27.47
-31.86
-36.01
-39.09
-40.25
-38.85
-34.66
-27.98
-19.54
-10.33
-1.35
6.57
12.91
17.46
20.21
21.28
20.87
19.27
16.82
13.96
11.22
9.06
7.80
7.55
8.18
9.35
10.70
11.94
12.93
13.69
14.23
14.54
14.45
13.78
12.43
10.42
8.01
5.45
2.96
0.62
-1.65
-3.96
-6.41
-9.01
-11.77
-14.74
-18.03
-21.80
-26.07
-30.60
-34.83
-37.88
-38.86
-37.15
-32.58
-25.62
-17.20
-8.46
-0.46
6.10
10.94
14.08
15.74
16.16
15.53
14.03
11.93
9.62
7.60
6.31
6.04
6.80
8.35
10.28
12.18
13.73
14.78
15.30
15.27
14.75
13.74
12.31
10.48
8.27
5.68
2.72
-0.50
-3.80
-6.89
-9.57
-11.79
-13.76
-15.80
-18.33
-21.57
-25.51
-29.80
-33.82
-36.79
-37.96
-36.71
-32.80
-26.39
-18.17
-9.10
-0.25
7.47
13.47
17.52
19.69
20.21
19.35
17.47
14.92
12.15
9.61
7.71
6.78
6.97
8.33
10.70
13.82
17.21
20.17
21.93
21.84
19.58
15.27
9.50
3.06
-3.27
-8.94
-13.68
-17.42
-20.19
-22.06
-23.15
-23.74
-24.26
-25.25
-27.21
-30.37
-34.52
-38.97
-42.68
-44.54
-43.69
-39.86
-33.38
-25.11
-16.08
-7.26
0.68
7.41
12.81
16.78
19.23
20.08
19.40
17.48
14.85
12.17
10.09
9.02
9.12
10.21
11.92
13.78
15.41
16.59
17.28
17.55
17.43
16.87
15.73
13.89
11.35
8.24
4.87
1.51
-1.63
-4.55
-7.32
-10.08
-12.99
-16.18
-19.75
-23.80
-28.26
-32.80
-36.77
-39.30
-39.57
-37.11
-31.97
-24.76
-16.44
-7.98
-0.17
6.56
12.02
16.14
18.84
20.04
19.76
18.19
15.81
13.27
11.24
10.16
10.10
10.81
11.84
12.77
13.34
13.59
13.66
13.74
13.86
13.90
13.58
12.65
10.91
8.40
5.35
2.05
-1.24
-4.39
-7.44
-10.50
-13.72
-17.18
-20.88
-24.78
-28.75
-32.51
-35.53
-37.07
-36.35
-32.86
-26.62
-18.25
-8.86
0.36
8.41
14.73
19.19
21.90
23.07
22.95
21.79
19.97
17.93
16.16
15.06
14.82
15.38
16.50
17.84
19.09
20.05
20.66
20.90
20.81
20.37
19.52
18.09
15.93
12.96
9.28
5.24
1.31
-2.08
-4.68
-6.59
-8.20
-10.03
-12.54
-15.95
-20.16
-24.79
-29.24
-32.77
-34.60
-34.07
-30.82
-24.94
-17.07
-8.22
0.45
7.94
13.67
17.44
19.46
20.09
19.69
18.59
17.07
15.37
13.80
12.66
12.22
12.60
13.80
15.55
17.47
19.17
20.33
20.84
20.78
20.34
19.66
18.72
17.32
15.20
12.22
8.47
4.32
0.23
-3.45
-6.58
-9.30
-11.96
-14.84
-18.13
-21.81
-25.74
-29.59
-32.92
-35.11
-35.47
-33.43
-28.77
-21.72
-13.05
-3.80
5.00
12.58
18.49
22.63
25.01
25.74
24.97
22.99
20.25
17.32
14.80
13.11
12.44
12.72
13.69
15.01
16.36
17.47
18.20
18.49
18.35
17.89
17.14
16.08
14.58
12.48
9.72
6.39
2.78
-0.73
-3.83
-6.45
-8.77
-11.14
-13.98
-17.56
-21.87
-26.64
-31.30
-35.11
-37.25
-37.01
-34.01
-28.31
-20.48
-11.44
-2.32
5.90
12.54
17.33
20.37
21.91
22.27
21.71
20.49
18.94
17.42
16.31
15.93
16.35
17.41
18.78
20.05
20.89
21.13
20.79
20.00
18.96
17.75
16.33
14.50
12.09
8.98
5.34
1.51
-2.09
-5.12
-7.49
-9.36
-11.09
-13.11
-15.79
-19.35
-23.74
-28.63
-33.38
-37.07
-38.70
-37.54
-33.35
-26.51
-17.88
-8.60
0.30
8.03
14.20
18.69
21.55
22.92
22.97
21.93
20.09
17.83
15.62
13.89
13.02
13.21
14.44
16.43
18.68
20.67
22.00
22.52
22.30
21.58
20.53
19.19
17.40
14.94
11.71
7.86
3.70
-0.38
-4.12
-7.45
-10.48
-13.43
-16.48
-19.77
-23.37
-27.27
-31.28
-34.99
-37.73
-38.72
-37.29
-33.17
-26.56
-18.18
-9.00
-0.03
7.92
14.31
18.85
21.53
22.48
21.96
20.30
17.88
15.10
12.47
10.49
9.58
9.99
11.63
14.11
16.79
19.08
20.60
21.28
21.23
20.66
19.63
18.11
15.97
13.11
9.58
5.57
1.34
-2.84
-6.79
-10.41
-13.67
-16.60
-19.26
-21.79
-24.44
-27.43
-30.75
-34.15
-36.95
-38.26
-37.26
-33.47
-27.04
-18.73
-9.68
-1.04
6.29
11.83
15.49
17.42
17.78
16.79
14.63
11.63
8.30
5.20
2.92
1.82
1.99
3.24
5.16
7.32
9.32
10.88
11.84
12.13
11.77
10.81
9.26
7.17
4.53
1.37
-2.20
-5.96
-9.65
-12.97
-15.75
-17.98
-19.85
-21.69
-23.86
-26.60
-29.92
-33.57
-36.96
-39.40
-40.13
-38.62
-34.64
-28.43
-20.55
-11.81
-3.04
5.05
11.95
17.34
21.06
23.03
23.28
22.02
19.63
16.68
13.84
11.68
10.56
10.54
11.43
12.85
14.41
15.83
16.94
17.69
18.07
18.08
17.61
16.54
14.76
12.24
9.09
5.53
1.85
-1.68
-4.84
-7.55
-9.82
-11.81
-13.84
-16.28
-19.51
-23.66
-28.45
-33.14
-36.66
-37.96
-36.35
-31.76
-24.77
-16.36
-7.61
0.55
7.57
13.19
17.37
20.11
21.45
21.49
20.43
18.74
17.02
15.93
15.98
17.32
19.69
22.49
25.09
27.04
28.29
29.17
30.14
31.60
33.55
35.64
37.30
37.95
37.30
35.45
32.82
30.07
27.86
26.66
26.68
27.72
29.02
29.30
26.84
19.95
7.56
-10.17
-31.61
-53.87
-73.63
-88.12
-95.83
-96.76
-92.04
-83.26
-71.79
-58.56
-44.22
-29.40
-15.05
-2.25
8.01
15.26
19.70
22.05
23.22
23.94
24.55
25.05
25.32
25.35
25.32
25.49
25.96
26.57
26.84
26.18
24.12
20.50
15.56
9.86
4.07
-1.20
-5.60
-9.08
-11.88
-14.45
-17.24
-20.66
-24.81
-29.48
-34.17
-38.13
-40.60
-40.94
-38.81
-34.25
-27.68
-19.81
-11.53
-3.70
2.99
8.09
11.41
13.00
13.07
11.89
9.81
7.24
4.60
2.31
0.70
-0.09
-0.09
0.52
1.45
2.49
3.52
4.48
5.33
6.00
6.30
6.09
5.21
3.66
1.56
-0.87
-3.38
-5.76
-7.91
-9.84
-11.70
-13.71
-16.13
-19.17
-22.87
-27.06
-31.28
-34.83
-36.89
-36.72
-33.91
-28.52
-21.14
-12.75
-4.45
2.79
8.40
12.17
14.19
14.67
13.88
12.06
9.51
6.68
4.08
2.21
1.42
1.76
3.00
4.78
6.68
8.41
9.84
10.93
11.70
12.13
12.05
11.33
9.84
7.63
4.87
1.83
-1.23
-4.15
-6.94
-9.67
-12.51
-15.62
-19.15
-23.17
-27.59
-32.07
-35.98
-38.48
-38.81
-36.51
-31.60
-24.58
-16.29
-7.64
0.52
7.57
13.13
16.99
19.13
19.64
18.73
16.77
14.20
11.56
9.38
8.05
7.77
8.42
9.62
10.90
11.87
12.40
12.57
12.58
12.55
12.36
11.74
10.38
8.12
5.05
1.52
-2.00
-5.11
-7.59
-9.41
-10.81
-12.16
-13.87
-16.32
-19.69
-23.85
-28.26
-32.09
-34.37
-34.26
-31.31
-25.66
-17.93
-9.13
-0.36
7.44
13.63
17.97
20.49
21.43
21.11
19.85
17.96
15.77
13.63
11.91
10.90
10.74
11.40
12.63
14.12
15.54
16.65
17.35
17.63
17.52
17.02
16.11
14.72
12.82
10.40
7.55
4.43
1.25
-1.79
-4.57
-7.06
-9.36
-11.65
-14.16
-17.13
-20.67
-24.71
-28.87
-32.44
-34.57
-34.44
-31.55
-25.90
-18.06
-8.99
0.19
8.46
15.16
19.94
22.80
23.93
23.63
22.23
20.08
17.59
15.16
13.26
12.25
12.30
13.39
15.21
17.35
19.34
20.81
21.59
21.65
21.07
19.99
18.51
16.66
14.47
11.95
9.20
6.29
3.33
0.37
-2.52
-5.29
-7.83
-10.04
-11.86
-13.32
-14.68
-16.26
-18.42
-21.25
-24.51
-27.56
-29.52
-29.54
-27.04
-21.98
-14.82
-6.46
2.08
9.81
16.00
20.29
22.63
23.21
22.35
20.47
17.98
15.38
13.13
11.66
11.21
11.82
13.27
15.16
17.09
18.74
19.97
20.82
21.42
21.82
21.99
21.78
21.03
19.64
17.64
15.24
12.72
10.39
8.47
6.96
5.78
4.71
3.57
2.23
0.66
-1.08
-2.87
-4.55
-5.98
-7.11
-8.02
-8.88
-9.90
-11.18
-12.69
-14.29
-15.81
-17.19
-18.47
-19.83
-21.43
-23.43
-25.92
-28.89
-32.25
-35.70
-38.63
-40.21
-39.60
-36.23
-30.10
-21.85
-12.59
-3.51
4.43
10.70
15.18
17.93
19.14
18.94
17.56
15.29
12.59
10.02
8.08
7.15
7.34
8.58
10.57
12.93
15.27
17.28
18.78
19.72
20.12
20.04
19.54
18.67
17.52
16.12
14.49
12.67
10.66
8.54
6.41
4.37
2.49
0.73
-1.07
-3.07
-5.36
-7.89
-10.46
-12.83
-14.80
-16.33
-17.55
-18.69
-20.04
-21.86
-24.35
-27.50
-31.08
-34.54
-37.12
-37.98
-36.46
-32.33
-25.83
-17.72
-9.01
-0.79
6.11
11.16
14.21
15.44
15.23
14.05
12.32
10.45
8.70
7.32
6.42
6.06
6.20
6.73
7.52
8.50
9.68
11.08
12.61
14.12
15.30
15.83
15.54
14.45
12.73
10.66
8.42
6.07
3.60
0.94
-1.88
-4.77
-7.63
-10.37
-12.97
-15.43
-17.76
-19.98
-22.17
-24.51
-27.20
-30.26
-33.43
-36.12
-37.46
-36.70
-33.42
-27.78
-20.51
-12.62
-5.12
1.26
6.16
9.60
11.71
12.68
12.63
11.66
9.96
7.85
5.77
4.16
3.34
3.41
4.25
5.61
7.21
8.82
10.30
11.52
12.41
12.90
12.93
12.49
11.57
10.15
8.24
5.88
3.17
0.26
-2.66
-5.47
-8.08
-10.49
-12.79
-15.11
-17.60
-20.34
-23.33
-26.40
-29.22
-31.22
-31.84
-30.58
-27.25
-22.02
-15.45
-8.33
-1.51
4.30
8.61
11.19
12.07
11.40
9.54
6.93
4.07
1.43
-0.61
-1.85
-2.24
-1.83
-0.78
0.75
2.52
4.31
5.85
6.90
7.30
6.94
5.86
4.16
1.99
-0.48
-3.07
-5.62
-7.98
-10.14
-12.23
-14.50
-17.19
-20.46
-24.14
-27.78
-30.61
-31.85
-30.91
-27.60
-22.24
-15.50
-8.21
-1.15
5.10
10.16
13.88
16.21
17.17
16.89
15.59
13.55
11.19
8.93
7.14
6.11
5.90
6.41
7.37
8.44
9.36
10.01
10.37
10.42
10.06
9.06
7.24
4.56
1.30
-2.09
-5.11
-7.50
-9.38
-11.20
-13.52
-16.79
-21.03
-25.87
-30.55
-34.12
-35.69
-34.66
-30.86
-24.62
-16.66
-7.95
0.57
8.13
14.21
18.54
21.09
21.95
21.35
19.70
17.52
15.37
13.73
12.93
12.98
13.70
14.78
15.90
16.88
17.67
18.32
18.79
18.95
18.57
17.46
15.58
13.07
10.21
7.26
4.37
1.55
-1.29
-4.26
-7.46
-10.95
-14.75
-18.79
-22.77
-26.13
-28.09
-27.86
-24.95
-19.38
-11.74
-3.02
5.67
13.40
19.59
24.07
26.95
28.45
28.79
28.21
26.91
25.23
23.55
22.23
21.53
21.47
21.86
22.42
22.88
23.10
23.06
22.81
22.33
21.50
20.16
18.15
15.46
12.24
8.79
5.43
2.47
0.04
-1.91
-3.62
-5.42
-7.69
-10.69
-14.47
-18.77
-22.97
-26.17
-27.43
-26.09
-22.01
-15.63
-7.89
0.03
7.16
12.89
17.09
19.92
21.67
22.52
22.57
21.87
20.60
19.10
17.81
17.11
17.18
17.87
18.83
19.64
20.03
19.94
19.51
18.91
18.24
17.42
16.32
14.76
12.71
10.24
7.55
4.82
2.22
-0.13
-2.22
-4.09
-5.82
-7.52
-9.33
-11.36
-13.67
-16.25
-18.87
-21.10
-22.36
-22.08
-19.92
-15.88
-10.41
-4.24
1.82
7.14
11.35
14.33
16.05
16.54
15.86
14.18
11.82
9.23
6.90
5.19
4.26
4.09
4.47
5.16
5.84
6.31
6.42
6.15
5.64
5.06
4.55
4.11
3.66
3.03
2.11
0.88
-0.57
-2.11
-3.65
-5.18
-6.74
-8.38
-10.18
-12.18
-14.42
-16.85
-19.34
-21.59
-23.18
-23.63
-22.58
-19.84
-15.59
-10.29
-4.57
0.95
5.73
9.48
12.05
13.43
13.68
12.96
11.49
9.61
7.73
6.23
5.37
5.27
5.83
6.87
8.12
9.38
10.49
11.38
12.00
12.29
12.20
11.71
10.82
9.64
8.31
6.96
5.66
4.38
3.04
1.54
-0.15
-2.01
-3.93
-5.83
-7.64
-9.36
-11.00
-12.65
-14.45
-16.63
-19.34
-22.55
-25.92
-28.76
-30.26
-29.70
-26.79
-21.73
-15.26
-8.35
-1.92
3.37
7.23
9.72
11.05
11.49
11.28
10.57
9.56
8.45
7.48
6.85
6.66
6.84
7.20
7.57
7.84
8.01
8.22
8.54
8.97
9.39
9.62
9.50
8.99
8.15
7.06
5.85
4.52
3.08
1.48
-0.30
-2.22
-4.20
-6.16
-8.01
-9.72
-11.32
-12.93
-14.68
-16.73
-19.07
-21.55
-23.83
-25.36
-25.64
-24.31
-21.31
-16.94
-11.78
-6.47
-1.57
2.56
5.75
7.98
9.24
9.62
9.29
8.51
7.60
6.89
6.59
6.76
7.41
8.46
9.82
11.32
12.73
13.79
14.27
14.13
13.52
12.69
11.85
11.03
10.15
9.05
7.66
6.02
4.29
2.64
1.17
-0.06
-1.06
-1.88
-2.60
-3.35
-4.27
-5.46
-6.90
-8.46
-9.94
-11.18
-12.17
-13.05
-14.03
-15.34
-17.05
-19.10
-21.25
-23.12
-24.30
-24.35
-22.95
-19.99
-15.63
-10.33
-4.71
0.54
4.84
7.81
9.36
9.61
8.86
7.45
5.74
4.00
2.44
1.15
0.24
-0.25
-0.28
0.14
0.95
2.00
3.12
4.13
4.91
5.37
5.49
5.27
4.78
4.08
3.27
2.43
1.60
0.69
-0.45
-2.01
-4.07
-6.59
-9.32
-11.91
-14.06
-15.60
-16.61
-17.38
-18.23
-19.43
-21.00
-22.70
-24.08
-24.64
-23.92
-21.74
-18.18
-13.58
-8.46
-3.34
1.31
5.15
7.95
9.60
10.12
9.60
8.25
6.36
4.27
2.32
0.80
-0.11
-0.33
0.05
0.86
1.87
2.90
3.84
4.67
5.40
5.99
6.32
6.18
5.42
4.01
2.09
-0.08
-2.25
-4.27
-6.12
-7.93
-9.79
-11.72
-13.64
-15.43
-17.03
-18.46
-19.91
-21.55
-23.43
-25.40
-27.03
-27.77
-27.09
-24.71
-20.66
-15.30
-9.24
-3.17
2.26
6.54
9.44
10.93
11.24
10.72
9.76
8.70
7.72
6.96
6.43
6.14
6.12
6.36
6.84
7.51
8.26
8.99
9.61
10.05
10.29
10.30
10.06
9.46
8.43
6.93
5.02
2.83
0.61
-1.49
-3.34
-4.99
-6.53
-8.10
-9.80
-11.67
-13.72
-15.97
-18.44
-21.18
-24.18
-27.26
-30.05
-31.98
-32.44
-30.93
-27.30
-21.85
-15.27
-8.44
-2.16
3.02
6.83
9.25
10.43
10.55
9.91
8.81
7.58
6.50
5.79
5.57
5.82
6.47
7.41
8.53
9.76
11.00
12.19
13.25
14.10
14.62
14.64
13.99
12.64
10.67
8.31
5.87
3.59
1.55
-0.34
-2.28
-4.42
-6.77
-9.18
-11.38
-13.17
-14.52
-15.61
-16.80
-18.40
-20.61
-23.31
-26.11
-28.44
-29.69
-29.37
-27.23
-23.26
-17.77
-11.28
-4.45
2.00
7.43
11.42
13.81
14.72
14.48
13.50
12.15
10.77
9.61
8.83
8.50
8.65
9.24
10.17
11.38
12.82
14.42
16.10
17.68
19.00
19.83
20.05
19.59
18.45
16.70
14.44
11.81
9.00
6.19
3.55
1.13
-1.11
-3.31
-5.59
-8.02
-10.61
-13.30
-16.06
-18.87
-21.69
-24.33
-26.45
-27.59
-27.29
-25.25
-21.43
-16.16
-10.04
-3.76
1.96
6.64
9.97
11.87
12.41
11.79
10.24
8.10
5.74
3.59
2.09
1.55
2.05
3.43
5.30
7.20
8.75
9.80
10.39
10.67
10.80
10.78
10.49
9.74
8.45
6.69
4.65
2.52
0.47
-1.52
-3.54
-5.74
-8.21
-11.02
-14.15
-17.57
-21.13
-24.53
-27.33
-28.98
-28.96
-27.02
-23.23
-18.02
-12.05
-6.00
-0.38
4.51
8.59
11.84
14.23
15.67
16.06
15.44
14.04
12.29
10.70
9.70
9.53
10.14
11.24
12.42
13.32
13.76
13.82
13.70
13.65
13.74
13.84
13.65
12.85
11.27
8.95
6.18
3.30
0.60
-1.84
-4.11
-6.41
-8.98
-11.93
-15.28
-18.92
-22.69
-26.33
-29.46
-31.65
-32.37
-31.18
-27.90
-22.72
-16.21
-9.17
-2.45
3.30
7.74
10.81
12.64
13.40
13.28
12.53
11.43
10.30
9.50
9.25
9.65
10.64
12.09
13.84
15.75
17.64
19.32
20.57
21.19
21.13
20.47
19.36
18.00
16.46
14.67
12.53
9.96
7.05
4.02
1.17
-1.26
-3.21
-4.81
-6.31
-7.98
-10.03
-12.59
-15.71
-19.33
-23.19
-26.85
-29.60
-30.68
-29.43
-25.62
-19.52
-11.93
-3.90
3.57
9.75
14.33
17.32
18.97
19.51
19.14
18.01
16.34
14.40
12.55
11.15
10.45
10.57
11.46
12.99
14.93
17.01
18.91
20.32
21.00
20.89
20.11
18.83
17.28
15.53
13.62
11.52
9.22
6.81
4.38
2.00
-0.32
-2.60
-4.86
-7.12
-9.38
-11.72
-14.29
-17.26
-20.66
-24.23
-27.37
-29.27
-29.15
-26.58
-21.62
-14.86
-7.20
0.43
7.23
12.74
16.73
19.21
20.30
20.22
19.22
17.66
15.91
14.34
13.27
12.87
13.21
14.16
15.49
16.96
18.35
19.55
20.51
21.21
21.62
21.61
21.05
19.88
18.12
15.90
13.41
10.81
8.14
5.36
2.37
-0.80
-3.96
-6.86
-9.26
-11.10
-12.56
-14.03
-15.91
-18.44
-21.60
-25.10
-28.45
-31.08
-32.40
-31.90
-29.26
-24.46
-17.89
-10.27
-2.53
4.41
9.93
13.71
15.81
16.45
16.00
14.78
13.16
11.46
10.00
9.01
8.62
8.83
9.56
10.66
11.90
13.08
14.00
14.53
14.60
14.25
13.51
12.41
10.97
9.21
7.20
5.06
2.91
0.83
-1.16
-3.17
-5.25
-7.36
-9.40
-11.21
-12.74
-14.09
-15.56
-17.47
-19.98
-22.95
-25.91
-28.18
-29.05
-28.04
-25.00
-20.15
-14.01
-7.25
-0.56
5.44
10.31
13.76
15.68
16.12
15.32
13.64
11.55
9.53
8.02
7.33
7.56
8.63
10.29
12.23
14.14
15.85
17.25
18.30
18.95
19.15
18.80
17.82
16.18
14.00
11.41
8.57
5.60
2.55
-0.59
-3.77
-6.93
-9.95
-12.73
-15.25
-17.66
-20.18
-23.11
-26.61
-30.61
-34.67
-38.08
-39.95
-39.55
-36.55
-31.12
-23.89
-15.72
-7.50
0.11
6.66
11.89
15.67
17.98
18.89
18.64
17.54
16.00
14.41
13.10
12.30
12.16
12.71
13.87
15.48
17.28
19.00
20.35
21.12
21.25
20.74
19.70
18.19
16.30
14.00
11.32
8.31
5.03
1.63
-1.76
-4.98
-7.92
-10.55
-12.90
-15.07
-17.19
-19.46
-21.99
-24.82
-27.71
-30.27
-31.97
-32.22
-30.60
-26.92
-21.38
-14.48
-6.97
0.33
6.75
11.85
15.44
17.55
18.32
17.96
16.77
15.10
13.35
11.93
11.09
10.95
11.48
12.55
13.97
15.60
17.26
18.76
19.90
20.49
20.40
19.62
18.27
16.53
14.60
12.57
10.47
8.23
5.76
3.07
0.23
-2.59
-5.24
-7.61
-9.73
-11.71
-13.78
-16.15
-19.00
-22.41
-26.28
-30.26
-33.71
-35.82
-35.73
-32.87
-27.23
-19.39
-10.43
-1.56
6.17
12.24
16.55
19.30
20.74
21.04
20.29
18.65
16.38
13.94
11.81
10.39
9.87
10.23
11.27
12.75
14.42
16.04
17.39
18.32
18.71
18.51
17.71
16.35
14.52
12.36
9.97
7.46
4.88
2.23
-0.53
-3.47
-6.59
-9.81
-12.97
-15.83
-18.21
-20.08
-21.65
-23.27
-25.27
-27.79
-30.53
-32.85
-33.88
-32.89
-29.52
-23.92
-16.70
-8.71
-0.85
6.11
11.63
15.48
17.63
18.26
17.64
16.08
13.89
11.36
8.84
6.68
5.23
4.73
5.27
6.70
8.68
10.81
12.68
14.07
14.86
15.06
14.76
14.02
12.90
11.40
9.52
7.21
4.47
1.40
-1.88
-5.20
-8.38
-11.30
-13.89
-16.15
-18.16
-20.03
-21.96
-24.19
-26.85
-29.84
-32.69
-34.64
-34.82
-32.55
-27.67
-20.61
-12.27
-3.79
3.78
9.72
13.74
15.91
16.54
15.99
14.66
12.89
11.02
9.40
8.36
8.09
8.63
9.82
11.40
13.09
14.70
16.14
17.35
18.24
18.68
18.49
17.59
15.95
13.70
10.98
7.99
4.86
1.71
-1.40
-4.45
-7.42
-10.32
-13.15
-15.95
-18.76
-21.73
-25.00
-28.67
-32.64
-36.48
-39.50
-40.83
-39.73
-35.83
-29.35
-21.04
-11.97
-3.25
4.24
10.04
14.04
16.41
17.40
17.27
16.27
14.66
12.82
11.15
10.04
9.74
10.30
11.52
13.13
14.84
16.44
17.83
18.99
19.86
20.36
20.38
19.83
18.70
17.07
15.04
12.69
10.10
7.27
4.20
0.93
-2.51
-6.04
-9.58
-13.07
-16.50
-19.94
-23.50
-27.29
-31.27
-35.14
-38.31
-39.91
-39.18
-35.66
-29.48
-21.39
-12.46
-3.81
3.73
9.72
14.10
16.91
18.28
18.32
17.25
15.46
13.49
11.88
11.02
11.03
11.69
12.74
13.90
15.05
16.20
17.36
18.50
19.49
20.15
20.36
20.01
19.10
17.58
15.44
12.69
9.45
5.88
2.26
-1.16
-4.24
-6.97
-9.44
-11.81
-14.23
-16.85
-19.79
-23.08
-26.63
-30.03
-32.64
-33.67
-32.46
-28.71
-22.67
-15.09
-6.98
0.66
7.13
12.10
15.60
17.77
18.77
18.74
17.79
16.15
14.18
12.32
11.00
10.55
11.03
12.32
14.13
16.12
17.97
19.43
20.34
20.68
20.47
19.80
18.79
17.50
15.90
13.94
11.59
8.89
5.96
2.97
0.07
-2.64
-5.16
-7.50
-9.67
-11.71
-13.73
-16.02
-18.89
-22.57
-26.83
-31.01
-34.04
-34.87
-32.85
-28.02
-21.04
-12.91
-4.65
2.96
9.36
14.23
17.36
18.70
18.36
16.72
14.30
11.72
9.55
8.17
7.79
8.41
9.87
11.84
13.90
15.68
16.94
17.62
17.81
17.62
17.12
16.25
14.93
13.13
10.86
8.23
5.39
2.41
-0.66
-3.78
-6.89
-9.83
-12.44
-14.64
-16.53
-18.44
-20.81
-23.98
-27.92
-32.16
-35.79
-37.78
-37.32
-34.07
-28.30
-20.73
-12.35
-4.08
3.35
9.48
14.03
16.91
18.14
17.85
16.35
14.13
11.75
9.76
8.57
8.37
9.05
10.34
11.84
13.29
14.54
15.61
16.61
17.59
18.54
19.32
19.73
19.53
18.57
16.79
14.29
11.23
7.85
4.38
1.05
-2.05
-4.93
-7.73
-10.68
-14.01
-17.88
-22.26
-26.92
-31.37
-34.91
-36.79
-36.37
-33.29
-27.69
-20.11
-11.48
-2.80
5.01
11.33
15.88
18.68
19.93
19.90
18.86
17.11
15.00
12.88
11.11
9.94
9.49
9.68
10.41
11.50
12.87
14.38
15.88
17.18
18.05
18.38
18.17
17.47
16.36
14.77
12.57
9.65
6.08
2.13
-1.82
-5.42
-8.50
-11.15
-13.63
-16.21
-19.11
-22.41
-25.99
-29.57
-32.67
-34.65
-34.81
-32.66
-28.03
-21.26
-13.11
-4.57
3.41
10.12
15.22
18.66
20.54
21.05
20.37
18.69
16.30
13.59
11.02
9.04
8.00
7.96
8.80
10.18
11.68
12.93
13.71
13.99
13.84
13.36
12.59
11.47
9.94
7.97
5.67
3.21
0.76
-1.57
-3.81
-6.01
-8.26
-10.53
-12.80
-15.07
-17.44
-20.09
-23.14
-26.51
-29.80
-32.35
-33.36
-32.21
-28.66
-23.01
-16.00
-8.56
-1.56
4.37
8.96
12.16
13.98
14.41
13.51
11.48
8.75
5.96
3.79
2.75
3.00
4.28
6.11
7.97
9.49
10.55
11.21
11.59
11.79
11.82
11.62
11.08
10.09
8.53
6.39
3.71
0.69
-2.45
-5.43
-8.09
-10.43
-12.59
-14.84
-17.49
-20.71
-24.52
-28.65
-32.54
-35.42
-36.46
-35.00
-30.84
-24.27
-16.06
-7.23
1.20
8.48
14.18
18.15
20.44
21.15
20.42
18.51
15.85
12.99
10.46
8.71
7.87
7.83
8.35
9.10
9.89
10.64
11.36
12.11
12.89
13.61
14.06
13.96
12.97
10.89
7.75
3.86
-0.26
-4.14
-7.50
-10.36
-12.98
-15.65
-18.56
-21.80
-25.35
-29.12
-32.91
-36.30
-38.63
-39.13
-37.18
-32.55
-25.62
-17.24
-8.50
-0.40
6.41
11.60
15.14
17.18
17.87
17.42
16.07
14.16
12.11
10.39
9.31
9.06
9.60
10.67
11.99
13.27
14.32
15.06
15.52
15.66
15.46
14.81
13.60
11.73
9.23
6.25
3.00
-0.25
-3.29
-6.01
-8.43
-10.63
-12.82
-15.21
-18.11
-21.73
-26.08
-30.84
-35.26
-38.37
-39.18
-37.06
-31.88
-24.19
-14.99
-5.49
3.21
10.37
15.66
19.09
20.86
21.26
20.53
18.91
16.71
14.34
12.29
11.02
10.84
11.75
13.48
15.58
17.54
19.05
19.99
20.41
20.50
20.36
19.95
19.08
17.53
15.20
12.18
8.72
5.22
2.02
-0.75
-3.17
-5.43
-7.76
-10.34
-13.29
-16.72
-20.68
-25.02
-29.35
-32.90
-34.78
-34.16
-30.66
-24.46
-16.35
-7.40
1.30
8.96
15.10
19.57
22.36
23.56
23.28
21.75
19.31
16.42
13.64
11.50
10.33
10.21
10.94
12.18
13.53
14.69
15.52
15.99
16.17
16.05
15.59
14.70
13.27
11.27
8.79
5.98
3.03
0.12
-2.64
-5.18
-7.51
-9.66
-11.77
-14.00
-16.57
-19.63
-23.20
-26.98
-30.38
-32.65
-33.01
-30.95
-26.40
-19.72
-11.70
-3.29
4.56
11.06
15.71
18.32
18.95
17.94
15.74
12.88
9.90
7.24
5.30
4.27
4.23
5.02
6.36
7.88
9.26
10.32
11.01
11.46
11.79
12.06
12.18
11.91
10.90
8.92
5.94
2.22
-1.77
-5.46
-8.50
-10.77
-12.51
-14.16
-16.20
-18.96
-22.60
-26.94
-31.51
-35.51
-38.01
-38.12
-35.32
-29.67
-21.78
-12.70
-3.59
4.59
11.28
16.28
19.62
21.43
21.86
21.07
19.32
17.06
14.84
13.19
12.41
12.53
13.32
14.37
15.34
16.02
16.41
16.59
16.66
16.65
16.46
15.92
14.84
13.05
10.50
7.34
3.85
0.38
-2.82
-5.64
-8.21
-10.83
-13.84
-17.50
-21.96
-27.14
-32.68
-37.90
-41.88
-43.61
-42.32
-37.70
-30.17
-20.74
-10.78
-1.62
5.86
11.30
14.84
16.84
17.67
17.59
16.73
15.25
13.46
11.79
10.75
10.64
11.51
13.09
14.89
16.46
17.51
18.01
18.12
18.05
17.92
17.67
17.03
15.74
13.62
10.71
7.28
3.71
0.31
-2.79
-5.68
-8.53
-11.62
-15.12
-19.15
-23.75
-28.85
-34.17
-39.13
-42.85
-44.31
-42.69
-37.62
-29.54
-19.44
-8.77
1.13
9.30
15.36
19.41
21.78
22.78
22.63
21.48
19.53
17.15
14.82
13.03
12.11
12.15
12.97
14.27
15.68
16.91
17.80
18.32
18.51
18.44
18.12
17.45
16.23
14.26
11.47
8.00
4.18
0.43
-2.92
-5.77
-8.26
-10.67
-13.31
-16.40
-19.98
-24.02
-28.32
-32.55
-36.15
-38.42
-38.63
-36.24
-31.10
-23.58
-14.46
-4.80
4.40
12.28
18.30
22.23
24.08
24.10
22.65
20.23
17.34
14.51
12.18
10.69
10.23
10.77
12.06
13.67
15.14
16.11
16.45
16.26
15.73
15.05
14.24
13.16
11.65
9.58
7.01
4.06
0.93
-2.25
-5.44
-8.65
-11.88
-15.09
-18.25
-21.39
-24.58
-27.91
-31.43
-34.92
-37.93
-39.76
-39.61
-36.87
-31.37
-23.47
-14.06
-4.36
4.50
11.65
16.77
19.91
21.32
21.25
19.95
17.64
14.70
11.70
9.26
7.90
7.78
8.77
10.45
12.35
14.09
15.48
16.40
16.85
16.78
16.19
15.03
13.28
10.95
8.04
4.69
1.16
-2.24
-5.21
-7.65
-9.66
-11.53
-13.59
-16.07
-19.06
-22.54
-26.44
-30.60
-34.65
-37.93
-39.53
-38.56
-34.47
-27.36
-18.06
-7.83
1.97
10.26
16.49
20.53
22.61
23.00
22.00
19.93
17.19
14.26
11.73
10.11
9.69
10.46
12.08
14.06
15.93
17.43
18.51
19.27
19.78
19.94
19.57
18.44
16.46
13.72
10.51
7.14
3.86
0.76
-2.23
-5.22
-8.29
-11.42
-14.59
-17.85
-21.32
-25.15
-29.35
-33.65
-37.38
-39.62
-39.48
-36.45
-30.58
-22.49
-13.16
-3.61
5.25
12.83
18.71
22.67
24.63
24.71
23.23
20.68
17.67
14.75
12.41
10.90
10.36
10.70
11.72
13.13
14.59
15.85
16.68
17.00
16.81
16.18
15.13
13.66
11.69
9.17
6.10
2.61
-1.07
-4.62
-7.81
-10.55
-12.87
-14.93
-16.97
-19.24
-21.96
-25.31
-29.24
-33.43
-37.27
-39.84
-40.22
-37.75
-32.29
-24.31
-14.87
-5.19
3.57
10.65
15.71
18.74
19.91
19.48
17.75
15.15
12.21
9.51
7.52
6.51
6.51
7.38
8.86
10.70
12.64
14.42
15.84
16.70
16.94
16.57
15.66
14.24
12.28
9.73
6.60
3.01
-0.78
-4.45
-7.75
-10.55
-12.91
-15.10
-17.45
-20.29
-23.86
-28.17
-32.88
-37.34
-40.60
-41.67
-39.82
-34.84
-27.18
-17.78
-7.84
1.53
9.51
15.66
19.84
22.08
22.55
21.48
19.24
16.32
13.27
10.66
8.94
8.33
8.85
10.25
12.15
14.07
15.63
16.60
16.96
16.85
16.51
16.04
15.43
14.47
12.87
10.43
7.17
3.33
-0.72
-4.62
-8.21
-11.46
-14.47
-17.39
-20.30
-23.29
-26.42
-29.66
-32.83
-35.45
-36.82
-36.18
-32.96
-27.08
-19.06
-9.89
-0.73
7.40
13.88
18.51
21.37
22.63
22.49
21.09
18.66
15.58
12.38
9.68
8.01
7.63
8.45
10.16
12.25
14.23
15.75
16.61
16.76
16.33
15.44
14.24
12.79
11.07
9.02
6.59
3.78
0.73
-2.35
-5.29
-7.95
-10.40
-12.79
-15.35
-18.30
-21.80
-25.80
-30.04
-33.97
-36.77
-37.56
-35.63
-30.72
-23.16
-13.81
-3.84
5.57
13.55
19.57
23.48
25.33
25.36
23.87
21.26
17.98
14.53
11.40
9.00
7.64
7.45
8.32
9.92
11.78
13.43
14.54
15.03
15.05
14.80
14.40
13.79
12.80
11.24
9.10
6.51
3.65
0.72
-2.22
-5.15
-8.04
-10.81
-13.39
-15.80
-18.25
-21.05
-24.46
-28.44
-32.51
-35.79
-37.25
-36.06
-31.83
-24.84
-15.84
-5.94
3.68
12.06
18.53
22.78
24.82
24.88
23.31
20.53
16.97
13.13
9.53
6.69
5.00
4.68
5.60
7.43
9.65
11.80
13.53
14.69
15.27
15.32
14.84
13.83
12.22
9.97
7.11
3.77
0.13
-3.54
-6.98
-9.99
-12.50
-14.57
-16.36
-18.14
-20.19
-22.78
-26.04
-29.82
-33.63
-36.62
-37.80
-36.34
-31.91
-24.81
-15.88
-6.31
2.81
10.57
16.43
20.17
21.79
21.50
19.70
16.91
13.69
10.57
7.97
6.14
5.21
5.16
5.84
7.01
8.33
9.50
10.31
10.69
10.69
10.42
9.94
9.19
8.08
6.46
4.25
1.50
-1.62
-4.85
-7.90
-10.56
-12.80
-14.82
-16.98
-19.65
-23.11
-27.29
-31.83
-36.03
-39.06
-40.13
-38.71
-34.64
-28.20
-20.00
-10.92
-1.89
6.24
12.87
17.64
20.48
21.47
20.81
18.88
16.11
13.10
10.48
8.77
8.27
8.96
10.52
12.46
14.37
15.95
17.10
17.87
18.33
18.46
18.17
17.31
15.70
13.26
10.01
6.15
2.00
-2.08
-5.76
-8.85
-11.38
-13.52
-15.61
-17.99
-20.93
-24.55
-28.71
-32.99
-36.69
-38.98
-39.10
-36.53
-31.25
-23.70
-14.75
-5.46
3.08
10.04
14.92
17.64
18.40
17.60
15.69
13.10
10.17
7.28
4.85
3.31
2.99
3.98
6.03
8.63
11.17
13.21
14.55
15.25
15.55
15.57
15.29
14.55
13.15
11.04
8.33
5.27
2.13
-0.91
-3.77
-6.46
-9.00
-11.53
-14.19
-17.24
-20.91
-25.30
-30.19
-34.97
-38.71
-40.40
-39.23
-34.94
-27.87
-18.90
-9.16
0.20
8.36
14.83
19.49
22.40
23.73
23.63
22.32
20.10
17.38
14.64
12.37
10.93
10.45
10.83
11.77
12.95
14.09
15.04
15.74
16.16
16.19
15.65
14.39
12.30
9.45
6.03
2.38
-1.19
-4.43
-7.20
-9.55
-11.62
-13.64
-15.88
-18.54
-21.77
-25.53
-29.61
-33.51
-36.56
-37.98
-37.15
-33.71
-27.82
-20.04
-11.27
-2.54
5.26
11.46
15.71
17.89
18.11
16.65
13.89
10.35
6.58
3.22
0.81
-0.25
0.14
1.78
4.21
6.82
9.11
10.75
11.74
12.22
12.36
12.19
11.52
10.10
7.78
4.68
1.16
-2.30
-5.32
-7.80
-9.89
-11.96
-14.36
-17.37
-21.09
-25.40
-29.99
-34.29
-37.54
-38.89
-37.64
-33.50
-26.74
-18.17
-8.96
-0.24
7.13
12.72
16.46
18.47
18.92
17.95
15.75
12.71
9.42
6.60
4.86
4.48
5.35
7.06
9.04
10.88
12.37
13.52
14.38
14.90
14.91
14.11
12.27
9.38
5.68
1.60
-2.40
-5.98
-9.04
-11.74
-14.44
-17.47
-21.11
-25.43
-30.30
-35.33
-39.84
-43.01
-43.92
-41.92
-36.84
-29.12
-19.70
-9.79
-0.49
7.46
13.74
18.30
21.18
22.41
22.14
20.67
18.52
16.38
14.85
14.24
14.51
15.36
16.37
17.26
17.89
18.33
18.66
18.88
18.87
18.46
17.45
15.71
13.21
10.11
6.65
3.19
-0.02
-2.87
-5.43
-8.02
-11.00
-14.72
-19.27
-24.39
-29.38
-33.32
-35.18
-34.17
-30.01
-23.02
-14.03
-4.16
5.45
13.93
20.74
25.67
28.73
30.06
29.88
28.52
26.47
24.29
22.52
21.53
21.44
22.10
23.18
24.32
25.22
25.75
25.92
25.82
25.57
25.11
24.28
22.81
20.47
17.26
13.43
9.46
5.84
2.85
0.48
-1.64
-3.99
-7.02
-10.95
-15.68
-20.76
-25.47
-28.85
-30.01
-28.29
-23.54
-16.21
-7.27
2.11
10.81
18.05
23.45
26.98
28.81
29.15
28.29
26.54
24.32
22.08
20.21
19.00
18.60
18.89
19.67
20.67
21.66
22.48
23.08
23.42
23.45
23.09
22.22
20.69
18.44
15.48
11.95
8.13
4.32
0.87
-2.00
-4.25
-6.03
-7.70
-9.69
-12.35
-15.82
-19.92
-24.11
-27.58
-29.47
-29.05
-25.95
-20.31
-12.73
-4.16
4.38
11.94
17.87
21.82
23.71
23.69
22.10
19.41
16.19
13.09
10.68
9.40
9.42
10.62
12.59
14.80
16.74
18.08
18.76
18.92
18.73
18.27
17.47
16.19
14.30
11.87
9.08
6.17
3.35
0.67
-1.91
-4.42
-6.87
-9.26
-11.63
-14.16
-17.11
-20.73
-24.98
-29.44
-33.31
-35.61
-35.52
-32.66
-27.27
-20.04
-11.98
-4.06
3.03
8.85
13.28
16.31
18.02
18.52
18.00
16.73
15.06
13.40
12.10
11.42
11.44
12.07
13.08
14.17
15.10
15.69
15.88
15.69
15.19
14.42
13.45
12.29
10.94
9.35
7.48
5.29
2.77
0.02
-2.83
-5.63
-8.26
-10.64
-12.75
-14.65
-16.51
-18.59
-21.21
-24.58
-28.58
-32.68
-35.94
-37.32
-36.01
-31.73
-24.88
-16.41
-7.49
0.80
7.71
12.93
16.46
18.48
19.23
18.94
17.83
16.19
14.41
12.92
12.10
12.13
12.91
14.16
15.46
16.52
17.19
17.51
17.58
17.49
17.22
16.70
15.87
14.73
13.38
11.97
10.65
9.48
8.49
7.62
6.79
5.94
5.05
4.12
3.13
2.06
0.84
-0.61
-2.30
-4.22
-6.20
-8.07
-9.65
-10.88
-11.86
-12.79
-13.92
-15.37
-17.08
-18.88
-20.55
-21.93
-23.08
-24.24
-25.67
-27.68
-30.36
-33.67
-37.36
-40.94
-43.70
-44.80
-43.46
-39.25
-32.30
-23.39
-13.81
-4.95
2.10
6.84
9.41
10.32
10.19
9.46
8.36
7.02
5.61
4.46
3.85
4.01
4.89
6.30
7.93
9.56
11.08
12.48
13.72
14.67
15.13
14.95
14.12
12.75
11.05
9.24
7.48
5.90
4.52
3.32
2.20
1.02
-0.33
-1.93
-3.71
-5.50
-7.14
-8.53
-9.72
-10.83
-12.07
-13.53
-15.21
-17.00
-18.76
-20.42
-22.00
-23.67
-25.67
-28.14
-31.01
-33.86
-36.03
-36.73
-35.35
-31.71
-26.12
-19.33
-12.31
-5.88
-0.67
3.05
5.25
6.02
5.59
4.28
2.45
0.55
-1.07
-2.14
-2.60
-2.47
-1.89
-0.97
0.17
1.46
2.83
4.17
5.41
6.42
7.11
7.37
7.14
6.42
5.28
3.89
2.46
1.08
-0.22
-1.47
-2.78
-4.18
-5.67
-7.23
-8.87
-10.61
-12.42
-14.21
-15.81
-17.08
-18.00
-18.81
-19.86
-21.44
-23.50
-25.58
-26.92
-26.73
-24.54
-20.32
-14.55
-7.92
-1.22
4.88
9.91
13.59
15.79
16.60
16.25
15.08
13.45
11.72
10.10
8.80
7.94
7.62
7.86
8.61
9.72
11.01
12.31
13.48
14.42
15.04
15.23
14.91
14.05
12.75
11.17
9.49
7.77
6.01
4.05
1.75
-0.94
-3.96
-7.08
-10.02
-12.53
-14.47
-15.89
-16.99
-18.10
-19.53
-21.53
-24.14
-27.12
-29.99
-32.02
-32.52
-30.94
-27.14
-21.37
-14.29
-6.78
0.31
6.33
10.92
13.97
15.62
16.08
15.59
14.38
12.64
10.61
8.57
6.84
5.74
5.48
6.07
7.34
8.94
10.53
11.89
12.88
13.48
13.65
13.34
12.52
11.18
9.38
7.27
4.93
2.43
-0.23
-3.06
-6.02
-9.03
-12.03
-14.98
-17.90
-20.90
-24.04
-27.35
-30.68
-33.73
-35.99
-36.88
-35.88
-32.70
-27.38
-20.38
-12.45
-4.46
2.81
8.80
13.25
16.12
17.48
17.48
16.34
14.38
12.03
9.78
8.10
7.28
7.34
8.09
9.20
10.36
11.36
12.15
12.79
13.32
13.79
14.14
14.22
13.79
12.67
10.73
8.03
4.80
1.32
-2.12
-5.32
-8.20
-10.78
-13.14
-15.43
-17.87
-20.72
-24.11
-27.92
-31.65
-34.56
-35.82
-34.84
-31.53
-26.22
-19.59
-12.42
-5.40
0.95
6.25
10.27
12.79
13.75
13.21
11.44
8.91
6.18
3.87
2.49
2.30
3.22
4.90
6.81
8.50
9.70
10.40
10.78
11.05
11.27
11.33
10.93
9.75
7.60
4.50
0.73
-3.25
-6.91
-9.92
-12.19
-13.91
-15.46
-17.24
-19.53
-22.43
-25.80
-29.32
-32.42
-34.39
-34.45
-32.07
-27.07
-19.84
-11.25
-2.40
5.71
12.39
17.37
20.69
22.52
23.06
22.52
21.13
19.22
17.19
15.49
14.46
14.27
14.83
15.87
17.02
17.99
18.60
18.86
18.88
18.74
18.39
17.63
16.18
13.81
10.50
6.45
2.03
-2.30
-6.25
-9.73
-12.89
-16.03
-19.50
-23.51
-28.05
-32.74
-36.91
-39.73
-40.39
-38.44
-33.88
-27.19
-19.22
-10.87
-2.92
4.07
9.84
14.28
17.32
18.96
19.26
18.39
16.66
14.51
12.41
10.81
10.01
10.15
11.14
12.75
14.64
16.48
18.02
19.15
19.81
19.99
19.61
18.53
16.61
13.86
10.46
6.72
2.99
-0.48
-3.66
-6.69
-9.80
-13.25
-17.17
-21.56
-26.20
-30.61
-34.10
-35.87
-35.24
-31.85
-25.83
-17.77
-8.59
0.71
9.25
16.41
21.86
25.53
27.53
28.08
27.54
26.25
24.56
22.85
21.43
20.62
20.58
21.32
22.65
24.27
25.90
27.32
28.42
29.11
29.32
28.92
27.78
25.85
23.22
20.03
16.48
12.75
8.99
5.37
1.99
-1.16
-4.26
-7.67
-11.78
-16.76
-22.33
-27.66
-31.62
-33.09
-31.40
-26.51
-19.07
-10.18
-1.01
7.45
14.56
20.05
23.89
26.17
27.02
26.60
25.21
23.28
21.35
19.92
19.32
19.58
20.43
21.53
22.51
23.22
23.65
23.87
23.93
23.79
23.32
22.36
20.79
18.60
15.84
12.66
9.20
5.64
2.09
-1.37
-4.70
-7.92
-11.16
-14.59
-18.39
-22.59
-26.99
-31.05
-33.93
-34.80
-33.01
-28.46
-21.58
-13.21
-4.41
3.87
10.99
16.59
20.53
22.79
23.41
22.52
20.46
17.79
15.21
13.38
12.76
13.39
15.00
17.09
19.15
20.80
21.88
22.39
22.38
21.90
20.96
19.51
17.53
15.00
12.03
8.77
5.43
2.22
-0.74
-3.41
-5.91
-8.48
-11.37
-14.80
-18.84
-23.30
-27.67
-31.20
-33.02
-32.41
-29.02
-23.11
-15.48
-7.27
0.41
6.73
11.40
14.49
16.31
17.16
17.22
16.56
15.30
13.71
12.20
11.19
10.93
11.41
12.36
13.39
14.17
14.57
14.62
14.47
14.21
13.82
13.14
11.98
10.23
7.88
5.07
2.01
-1.05
-3.90
-6.40
-8.56
-10.49
-12.43
-14.66
-17.41
-20.78
-24.67
-28.81
-32.71
-35.73
-37.18
-36.45
-33.23
-27.68
-20.41
-12.33
-4.44
2.50
8.06
12.18
14.98
16.68
17.40
17.31
16.55
15.38
14.12
13.10
12.57
12.62
13.18
14.03
14.87
15.43
15.56
15.22
14.46
13.37
12.01
10.38
8.48
6.35
4.04
1.68
-0.62
-2.80
-4.86
-6.79
-8.58
-10.20
-11.66
-13.05
-14.60
-16.58
-19.28
-22.74
-26.73
-30.61
-33.48
-34.44
-32.83
-28.58
-22.19
-14.57
-6.84
0.06
5.57
9.52
12.01
13.27
13.52
12.92
11.71
10.16
8.59
7.26
6.36
5.93
5.93
6.29
6.96
7.94
9.19
10.68
12.24
13.73
14.96
15.81
16.17
16.05
15.49
14.59
13.44
12.13
10.70
9.19
7.65
6.15
4.77
3.57
2.57
1.75
1.05
0.42
-0.26
-1.07
-2.11
-3.44
-5.02
-6.73
-8.43
-10.05
-11.60
-13.16
-14.74
-16.26
-17.57
-18.57
-19.34
-20.16
-21.47
-23.61
-26.57
-29.99
-33.16
-35.24
-35.54
-33.67
-29.66
-23.89
-16.99
-9.67
-2.65
3.48
8.26
11.47
13.04
13.16
12.14
10.43
8.50
6.78
5.55
4.95
4.98
5.49
6.31
7.26
8.22
9.13
9.97
10.71
11.26
11.52
11.34
10.69
9.59
8.19
6.68
5.23
3.94
2.81
1.77
0.71
-0.44
-1.70
-3.02
-4.32
-5.51
-6.56
-7.54
-8.62
-10.01
-11.84
-14.15
-16.72
-19.20
-21.07
-21.78
-20.95
-18.40
-14.35
-9.29
-3.94
1.01
5.03
7.90
9.65
10.43
10.35
9.49
7.90
5.77
3.47
1.54
0.46
0.48
1.51
3.23
5.14
6.91
8.38
9.58
10.61
11.45
11.98
11.99
11.31
9.88
7.82
5.39
2.92
0.70
-1.06
-2.31
-3.09
-3.66
-4.37
-5.68
-7.93
-11.27
-15.50
-20.10
-24.29
-27.25
-28.32
-27.19
-24.03
-19.33
-13.83
-8.32
-3.43
0.39
2.95
4.28
4.52
3.88
2.57
0.86
-1.01
-2.74
-4.09
-4.85
-4.98
-4.55
-3.81
-3.05
-2.51
-2.28
-2.26
-2.30
-2.24
-2.11
-2.10
-2.51
-3.56
-5.33
-7.66
-10.26
-12.81
-15.07
-16.99
-18.64
-20.18
-21.86
-23.94
-26.60
-29.82
-33.30
-36.45
-38.52
-38.83
-36.99
-33.01
-27.35
-20.69
-13.79
-7.28
-1.59
3.01
6.43
8.69
9.86
10.12
9.67
8.72
7.51
6.30
5.37
4.95
5.13
5.84
6.91
8.09
9.21
10.19
11.06
11.81
12.39
12.64
12.37
11.45
9.87
7.81
5.52
3.32
1.41
-0.24
-1.81
-3.60
-5.87
-8.66
-11.79
-14.88
-17.56
-19.67
-21.31
-22.87
-24.84
-27.62
-31.33
-35.77
-40.36
-44.32
-46.75
-46.91
-44.36
-39.12
-31.71
-23.03
-14.09
-5.84
1.07
6.29
9.81
11.87
12.78
12.87
12.43
11.71
10.90
10.17
9.70
9.61
9.93
10.58
11.44
12.34
13.21
14.04
14.79
15.39
15.70
15.54
14.80
13.47
11.63
9.39
6.80
3.89
0.69
-2.70
-6.10
-9.36
-12.41
-15.40
-18.55
-22.18
-26.52
-31.56
-37.07
-42.47
-46.94
-49.51
-49.37
-46.06
-39.74
-31.13
-21.36
-11.61
-2.83
4.43
10.07
14.22
17.12
19.05
20.23
20.85
21.13
21.22
21.30
21.46
21.75
22.17
22.70
23.28
23.86
24.42
24.97
25.49
25.89
26.03
25.70
24.78
23.23
21.13
18.60
15.74
12.54
8.98
5.07
0.95
-3.10
-6.80
-10.03
-12.93
-15.88
-19.37
-23.73
-28.96
-34.64
-39.90
-43.66
-44.89
-42.91
-37.56
-29.36
-19.32
-8.74
1.17
9.57
16.09
20.82
24.08
26.25
27.58
28.23
28.30
27.97
27.46
27.03
26.85
26.96
27.31
27.77
28.28
28.81
29.32
29.75
29.90
29.60
28.74
27.32
25.44
23.21
20.71
17.98
15.03
11.91
8.74
5.65
2.71
-0.10
-2.90
-5.83
-9.06
-12.73
-16.86
-21.32
-25.73
-29.46
-31.73
-31.75
-29.01
-23.50
-15.69
-6.49
3.02
11.82
19.20
24.80
28.56
30.66
31.38
31.04
29.98
28.52
26.97
25.63
24.73
24.37
24.55
25.11
25.84
26.52
26.99
27.19
27.14
26.96
26.74
26.48
26.04
25.21
23.77
21.62
18.83
15.59
12.11
8.58
5.11
1.70
-1.61
-4.81
-7.82
-10.66
-13.44
-16.36
-19.64
-23.33
-27.17
-30.58
-32.69
-32.61
-29.75
-24.04
-16.07
-6.89
2.28
10.38
16.77
21.24
23.96
25.25
25.44
24.85
23.72
22.24
20.64
19.13
17.92
17.16
16.92
17.20
17.88
18.78
19.70
20.45
20.85
20.82
20.26
19.14
17.46
15.37
13.05
10.74
8.64
6.77
5.03
3.28
1.36
-0.72
-2.87
-4.93
-6.84
-8.72
-10.84
-13.50
-16.85
-20.70
-24.54
-27.59
-29.08
-28.49
-25.69
-20.92
-14.74
-7.76
-0.62
6.11
11.90
16.34
19.10
20.05
19.37
17.41
14.69
11.69
8.82
6.40
4.66
3.77
3.75
4.46
5.62
6.84
7.77
8.26
8.24
7.80
7.01
5.90
4.44
2.66
0.68
-1.35
-3.29
-5.05
-6.69
-8.27
-9.81
-11.28
-12.63
-13.81
-14.91
-16.09
-17.56
-19.43
-21.67
-23.98
-25.90
-26.87
-26.36
-24.05
-19.96
-14.47
-8.26
-2.09
3.35
7.59
10.46
11.98
12.31
11.63
10.14
8.06
5.66
3.27
1.27
-0.01
-0.42
0.01
1.05
2.40
3.74
4.93
5.86
6.54
6.96
7.06
6.76
5.99
4.70
2.95
0.87
-1.40
-3.74
-6.07
-8.36
-10.54
-12.64
-14.69
-16.80
-19.18
-21.93
-25.05
-28.26
-30.99
-32.54
-32.24
-29.73
-25.10
-18.89
-11.88
-4.90
1.41
6.66
10.68
13.42
14.86
14.97
13.84
11.71
9.03
6.36
4.26
3.14
3.13
4.04
5.52
7.16
8.69
9.99
11.06
11.94
12.65
13.15
13.33
13.06
12.23
10.78
8.71
6.05
2.93
-0.44
-3.80
-6.87
-9.48
-11.65
-13.62
-15.81
-18.55
-21.99
-25.86
-29.52
-32.11
-32.84
-31.25
-27.30
-21.41
-14.31
-6.85
0.17
6.07
10.50
13.32
14.58
14.53
13.51
11.86
9.95
8.14
6.71
5.87
5.66
5.97
6.59
7.27
7.83
8.25
8.57
8.91
9.29
9.64
9.74
9.39
8.49
7.06
5.30
3.41
1.49
-0.47
-2.51
-4.69
-6.96
-9.25
-11.58
-14.12
-17.15
-20.82
-25.02
-29.19
-32.45
-33.90
-32.89
-29.27
-23.42
-16.14
-8.34
-0.89
5.61
10.82
14.68
17.26
18.70
19.19
18.91
18.06
16.84
15.44
14.04
12.81
11.85
11.22
10.88
10.74
10.69
10.63
10.51
10.36
10.22
10.05
9.68
8.87
7.38
5.13
2.26
-0.89
-3.93
-6.53
-8.57
-10.12
-11.42
-12.82
-14.59
-16.93
-19.84
-23.15
-26.43
-29.11
-30.55
-30.21
-27.80
-23.34
-17.23
-10.14
-2.88
3.77
9.26
13.26
15.75
16.89
16.91
16.12
14.76
13.10
11.39
9.92
8.93
8.54
8.72
9.27
9.97
10.58
11.01
11.33
11.69
12.18
12.77
13.16
12.99
11.92
9.83
6.91
3.57
0.28
-2.58
-4.91
-6.75
-8.37
-10.00
-11.87
-14.13
-16.85
-19.97
-23.24
-26.20
-28.25
-28.80
-27.42
-24.00
-18.79
-12.40
-5.58
0.86
6.28
10.35
12.98
14.33
14.68
14.33
13.48
12.32
10.97
9.62
8.49
7.75
7.49
7.66
8.07
8.52
8.89
9.17
9.47
9.88
10.39
10.80
10.83
10.17
8.70
6.49
3.82
1.05
-1.51
-3.70
-5.52
-7.05
-8.46
-9.92
-11.62
-13.69
-16.18
-18.97
-21.66
-23.65
-24.30
-23.12
-19.97
-15.17
-9.33
-3.17
2.66
7.71
11.68
14.42
15.88
16.08
15.14
13.30
10.94
8.46
6.25
4.57
3.56
3.15
3.20
3.50
3.86
4.23
4.66
5.28
6.13
7.14
8.07
8.58
8.47
7.61
6.10
4.13
1.93
-0.32
-2.54
-4.72
-6.89
-9.08
-11.35
-13.75
-16.33
-19.11
-22.02
-24.81
-27.04
-28.15
-27.61
-25.15
-20.83
-15.13
-8.77
-2.53
2.98
7.37
10.51
12.42
13.19
12.95
11.85
10.09
7.91
5.61
3.47
1.75
0.63
0.15
0.27
0.84
1.67
2.56
3.38
4.00
4.39
4.53
4.38
3.94
3.22
2.24
1.07
-0.17
-1.40
-2.61
-3.86
-5.34
-7.20
-9.55
-12.39
-15.55
-18.76
-21.66
-23.82
-24.80
-24.29
-22.09
-18.28
-13.14
-7.21
-1.10
4.59
9.35
12.88
14.99
15.70
15.10
13.43
10.98
8.13
5.27
2.79
0.94
-0.10
-0.38
-0.03
0.75
1.78
2.91
4.04
5.12
6.02
6.61
6.75
6.34
5.33
3.80
1.86
-0.35
-2.69
-5.08
-7.46
-9.85
-12.33
-15.06
-18.16
-21.59
-25.07
-27.99
-29.62
-29.32
-26.77
-22.15
-16.04
-9.26
-2.57
3.50
8.67
12.79
15.78
17.51
17.88
16.96
15.00
12.43
9.75
7.40
5.65
4.57
4.11
4.14
4.52
5.08
5.66
6.10
6.26
6.08
5.51
4.53
3.15
1.37
-0.71
-3.01
-5.42
-7.95
-10.74
-14.01
-17.88
-22.19
-26.36
-29.50
-30.70
-29.33
-25.38
-19.39
-12.29
-5.11
1.37
6.70
10.77
13.63
15.35
15.98
15.57
14.23
12.18
9.76
7.41
5.56
4.52
4.38
5.00
6.05
7.11
7.84
8.10
7.87
7.22
6.23
4.92
3.29
1.36
-0.80
-3.11
-5.55
-8.21
-11.22
-14.64
-18.26
-21.51
-23.61
-23.80
-21.68
-17.38
-11.55
-5.10
1.12
6.54
10.92
14.21
16.42
17.45
17.20
15.71
13.21
10.23
7.35
5.14
3.91
3.64
4.15
5.11
6.24
7.34
8.33
9.16
9.78
10.13
10.13
9.74
8.93
7.65
5.82
3.36
0.23
-3.48
-7.42
-11.03
-13.62
-14.59
-13.65
-10.85
-6.66
-1.69
3.42
8.22
12.44
15.93
18.57
20.23
20.73
20.01
18.20
15.65
12.89
10.49
8.85
8.14
8.20
8.70
9.18
9.32
9.00
8.21
7.07
5.68
4.12
2.41
0.55
-1.49
-3.78
-6.35
-9.18
-12.04
-14.46
-15.80
-15.43
-12.96
-8.44
-2.30
4.73
11.87
18.43
23.92
28.02
30.52
31.32
30.52
28.34
25.16
21.47
17.74
14.38
11.64
9.64
8.33
7.57
7.18
6.95
6.79
6.67
6.62
6.65
6.66
6.47
5.81
4.49
2.38
-0.46
-3.80
-7.38
-10.79
-13.54
-15.10
-14.99
-12.90
-8.87
-3.32
2.96
9.08
14.26
18.00
20.19
21.00
20.70
19.59
17.88
15.74
13.39
11.11
9.19
7.94
7.49
7.76
8.46
9.20
9.63
9.55
8.97
8.04
6.95
5.80
4.56
3.07
1.16
-1.35
-4.44
-8.00
-11.76
-15.35
-18.31
-20.18
-20.57
-19.20
-16.07
-11.42
-5.80
0.08
5.46
9.70
12.39
13.46
13.06
11.58
9.44
7.04
4.69
2.61
0.99
-0.02
-0.34
0.01
0.87
1.97
2.98
3.64
3.85
3.69
3.33
2.95
2.64
2.30
1.71
0.62
-1.18
-3.70
-6.82
-10.28
-13.71
-16.72
-18.90
-19.84
-19.23
-16.97
-13.20
-8.35
-3.06
2.00
6.25
9.32
11.08
11.59
11.06
9.77
8.08
6.34
4.84
3.74
3.04
2.63
2.36
2.12
1.93
1.88
2.04
2.42
2.86
3.14
3.05
2.47
1.44
0.15
-1.19
-2.43
-3.57
-4.80
-6.33
-8.42
-11.14
-14.32
-17.56
-20.26
-21.77
-21.56
-19.44
-15.54
-10.38
-4.64
0.91
5.66
9.23
11.46
12.43
12.33
11.42
9.95
8.15
6.23
4.38
2.82
1.70
1.10
0.96
1.10
1.30
1.42
1.39
1.28
1.17
1.09
0.97
0.68
0.08
-0.89
-2.21
-3.77
-5.40
-6.99
-8.46
-9.80
-11.10
-12.51
-14.16
-16.16
-18.45
-20.72
-22.47
-23.07
-22.03
-19.12
-14.56
-8.89
-2.88
2.77
7.49
10.98
13.16
14.12
14.03
13.14
11.74
10.07
8.39
6.85
5.54
4.48
3.65
3.00
2.44
1.90
1.29
0.52
-0.40
-1.41
-2.39
-3.18
-3.71
-3.98
-4.11
-4.32
-4.80
-5.67
-6.90
-8.34
-9.78
-11.04
-12.04
-12.84
-13.57
-14.39
-15.46
-16.87
-18.61
-20.49
-22.14
-23.08
-22.76
-20.82
-17.19
-12.17
-6.38
-0.63
4.38
8.15
10.54
11.66
11.81
11.24
10.13
8.60
6.79
4.94
3.34
2.24
1.76
1.84
2.25
2.79
3.37
3.98
4.64
5.25
5.59
5.40
4.49
2.89
0.81
-1.44
-3.58
-5.40
-6.84
-7.88
-8.60
-9.12
-9.58
-10.11
-10.84
-11.82
-13.05
-14.49
-16.06
-17.60
-18.85
-19.45
-18.98
-17.17
-14.01
-9.82
-5.16
-0.71
3.00
5.74
7.58
8.72
9.37
9.57
9.24
8.32
6.89
5.19
3.63
2.51
1.93
1.82
1.89
1.96
1.92
1.79
1.59
1.29
0.79
-0.03
-1.23
-2.78
-4.52
-6.26
-7.85
-9.18
-10.28
-11.24
-12.16
-13.19
-14.39
-15.83
-17.50
-19.35
-21.28
-23.07
-24.45
-25.02
-24.42
-22.43
-19.08
-14.72
-9.86
-5.07
-0.77
2.80
5.56
7.47
8.48
8.55
7.67
5.98
3.78
1.49
-0.40
-1.50
-1.63
-0.82
0.70
2.56
4.45
6.10
7.43
8.47
9.28
9.91
10.28
10.26
9.65
8.33
6.26
3.60
0.59
-2.51
-5.48
-8.25
-10.84
-13.35
-15.84
-18.38
-20.99
-23.61
-26.16
-28.40
-29.96
-30.38
-29.23
-26.26
-21.57
-15.59
-9.04
-2.69
2.80
7.03
9.81
11.23
11.48
10.85
9.67
8.30
6.98
5.94
5.28
5.03
5.15
5.58
6.22
6.94
7.65
8.25
8.72
9.04
9.16
9.04
8.54
7.57
6.06
4.06
1.72
-0.78
-3.28
-5.68
-7.92
-10.02
-11.98
-13.83
-15.63
-17.48
-19.50
-21.81
-24.41
-27.12
-29.52
-31.03
-31.08
-29.27
-25.53
-20.21
-13.95
-7.51
-1.55
3.51
7.52
10.46
12.44
13.51
13.74
13.26
12.32
11.23
10.39
10.08
10.40
11.24
12.36
13.49
14.46
15.23
15.84
16.34
16.71
16.79
16.41
15.41
13.75
11.52
8.92
6.22
3.65
1.35
-0.63
-2.40
-4.11
