1523355669.00
64.000000
-0.00
-0.00
-0.00
-0.00
-0.00
-0.00
-0.00
-0.00
-0.00
-0.00
0.00
0.01
0.01
-0.00
-0.03
-0.05
-0.05
0.00
0.13
0.36
0.66
1.01
1.37
1.72
2.06
2.40
2.79
3.24
3.80
4.42
5.06
5.66
6.20
6.68
7.15
7.68
8.31
9.14
10.09
11.04
11.88
12.56
13.14
13.76
14.65
15.96
17.91
20.32
22.90
25.38
27.58
29.57
31.68
34.32
37.81
42.54
48.15
54.10
59.83
64.97
69.58
74.14
79.34
85.71
93.76
103.00
112.62
121.73
129.77
136.75
143.30
150.75
157.77
166.64
177.95
191.79
206.97
220.57
228.25
225.36
208.53
176.87
132.76
80.05
23.07
-34.94
-92.44
-149.16
-205.23
-260.37
-313.74
-363.86
-409.81
-450.87
-486.45
-515.66
-537.12
-549.07
-549.77
-538.13
-513.91
-478.32
-433.47
-381.98
-326.48
-269.23
-211.95
-155.91
-102.12
-51.46
-4.91
36.67
72.61
102.64
126.91
145.92
160.37
170.99
178.39
182.97
185.02
184.76
182.48
178.52
173.28
167.18
160.56
153.68
146.68
139.62
132.55
125.52
118.57
111.80
105.26
99.02
93.09
87.51
82.29
77.42
72.91
68.79
65.04
61.69
58.74
56.19
54.03
52.24
50.81
49.68
48.77
47.97
47.14
46.12
44.72
42.77
40.14
36.71
32.47
27.46
21.74
15.51
8.97
2.41
-3.90
-9.72
-14.82
-19.03
-22.27
-24.49
-25.72
-26.05
-25.60
-24.53
-22.96
-21.05
-18.91
-16.63
-14.28
-11.88
-9.48
-7.10
-4.75
-2.42
-0.08
2.28
4.69
7.19
9.84
12.62
15.51
18.53
21.67
24.94
28.35
31.91
35.65
39.61
43.69
47.84
52.02
56.24
60.51
64.86
69.35
74.07
79.12
84.38
89.77
95.26
100.82
106.44
112.10
117.81
123.58
129.44
135.11
140.34
144.91
148.59
151.08
152.02
150.95
147.17
142.03
136.02
129.52
122.75
115.91
109.14
102.55
96.23
90.28
84.83
79.64
74.61
69.64
64.72
59.82
54.99
50.30
45.84
41.74
37.92
34.32
30.94
27.76
24.81
22.10
19.64
17.47
15.65
14.06
12.63
11.32
10.08
8.88
7.68
6.44
5.19
3.90
2.56
1.15
-0.33
-1.82
-3.30
-4.70
-5.99
-7.11
-8.02
-8.69
-9.12
-9.33
-9.36
-9.26
-9.10
-8.95
-8.84
-8.82
-8.87
-8.99
-9.18
-9.47
-9.86
-10.40
-11.08
-11.89
-12.77
-13.65
-14.45
-15.16
-15.77
-16.36
-17.04
-17.86
-18.85
-19.97
-21.10
-22.15
-23.09
-24.01
-25.11
-26.61
-28.68
-31.36
-34.45
-37.68
-40.78
-43.64
-46.42
-49.52
-53.44
-58.56
-64.97
-72.37
-80.24
-88.04
-95.50
-102.78
-110.48
-119.32
-129.89
-142.31
-156.21
-170.86
-185.48
-199.60
-213.19
-226.68
-240.91
-257.02
-276.24
-299.51
-326.70
-356.03
-383.86
-405.27
-415.49
-411.50
-393.12
-363.07
-325.81
-286.03
-247.31
-211.61
-179.63
-151.45
-127.05
-106.44
-89.30
-74.87
-61.99
-49.51
-36.79
-23.87
-11.37
-0.18
9.06
16.27
21.88
26.68
31.48
36.79
42.65
48.73
54.41
59.09
62.36
64.13
64.64
64.27
63.43
62.36
61.14
59.70
58.03
56.18
54.28
52.42
50.54
48.45
45.93
42.87
39.40
35.81
32.46
29.53
26.95
24.43
21.61
18.24
14.26
9.79
5.04
0.24
-4.43
-8.84
-12.83
-16.36
-19.49
-22.46
-25.70
-29.66
-34.66
-40.64
-47.07
-52.93
-56.95
-57.86
-54.80
-47.49
-36.45
-22.87
-8.30
5.61
17.58
26.88
33.35
37.33
39.42
40.25
40.34
40.10
39.82
39.68
39.82
40.26
41.00
41.93
43.01
44.23
45.59
47.09
48.64
50.10
51.28
52.00
52.13
51.61
50.48
48.78
46.65
44.23
41.63
38.93
36.14
33.22
30.21
27.19
24.26
21.50
18.88
16.25
13.51
10.66
7.80
5.10
2.65
0.37
-1.95
-4.54
-7.48
-10.74
-14.12
-17.45
-20.66
-23.85
-27.17
-30.78
-34.80
-39.32
-44.43
-50.20
-56.60
-63.32
-69.65
-74.54
-76.81
-75.43
-69.93
-60.53
-48.11
-33.94
-19.50
-6.03
5.52
14.64
21.27
25.75
28.67
30.72
32.44
34.12
35.77
37.27
38.45
39.28
39.86
40.35
40.89
41.56
42.38
43.35
44.46
45.70
46.98
48.15
49.00
49.33
48.99
47.99
46.40
44.38
42.10
39.74
37.40
35.13
32.88
30.53
27.99
25.28
22.50
19.88
17.58
15.62
13.81
11.88
9.59
6.91
4.05
1.26
-1.27
-3.58
-5.88
-8.46
-11.55
-15.16
-19.22
-23.56
-28.07
-32.63
-37.16
-41.64
-46.16
-50.92
-56.20
-62.14
-68.50
-74.63
-79.46
-81.72
-80.46
-75.17
-66.10
-54.07
-40.30
-26.09
-12.64
-0.86
8.72
15.92
20.93
24.17
26.20
27.57
28.64
29.70
30.80
32.02
33.35
34.79
36.31
37.88
39.40
40.86
42.20
43.43
44.44
45.02
44.95
44.03
42.22
39.65
36.61
33.38
30.16
27.06
24.12
21.34
18.72
16.24
13.84
11.37
8.68
5.62
2.13
-1.78
-6.06
-10.65
-15.48
-20.42
-25.33
-30.01
-34.32
-38.30
-42.27
-46.77
-52.40
-59.45
-67.64
-75.97
-82.89
-86.74
-86.20
-80.72
-70.71
-57.35
-42.27
-27.07
-13.02
-0.88
9.09
17.00
23.19
28.06
32.02
35.34
38.21
40.68
42.74
44.34
45.50
46.31
46.93
47.55
48.31
49.36
50.77
52.52
54.49
56.41
57.88
58.50
58.01
56.36
53.79
50.67
47.34
44.01
40.70
37.39
34.08
30.90
28.06
25.64
23.62
21.78
19.87
17.70
15.26
12.63
9.92
7.17
4.36
1.46
-1.54
-4.58
-7.64
-10.77
-14.11
-17.85
-22.06
-26.72
-31.64
-36.57
-41.27
-45.69
-49.88
-54.11
-58.71
-64.04
-70.26
-77.13
-83.87
-89.19
-91.57
-89.63
-82.71
-71.05
-55.83
-38.85
-21.99
-6.83
5.75
15.45
22.53
27.44
30.77
33.05
34.83
36.52
38.49
40.90
43.71
46.68
49.47
51.77
53.38
54.31
54.70
54.79
54.79
54.74
54.55
54.02
52.93
51.19
48.87
46.20
43.49
40.94
38.60
36.31
33.85
31.02
27.78
24.31
20.86
17.74
15.16
13.14
11.53
10.06
8.48
6.60
4.42
2.03
-0.43
-2.82
-5.14
-7.45
-9.97
-12.91
-16.42
-20.53
-25.12
-29.92
-34.65
-39.09
-43.19
-47.16
-51.40
-56.32
-62.15
-68.67
-75.11
-80.30
-82.90
-81.76
-76.28
-66.63
-53.69
-38.89
-23.83
-9.92
1.87
11.08
17.75
22.22
24.98
26.57
27.47
28.09
28.77
29.77
31.14
32.85
34.72
36.57
38.30
39.85
41.23
42.45
43.42
44.05
44.29
44.07
43.46
42.53
41.32
39.84
38.04
35.94
33.61
31.21
28.87
26.67
24.58
22.52
20.40
18.25
16.13
14.08
12.11
10.07
7.81
5.25
2.41
-0.56
-3.49
-6.27
-8.87
-11.39
-13.97
-16.76
-19.86
-23.32
-27.07
-30.99
-34.84
-38.43
-41.69
-44.73
-47.91
-51.76
-56.81
-63.36
-71.16
-79.36
-86.52
-90.97
-91.23
-86.47
-76.84
-63.41
-47.90
-32.11
-17.58
-5.20
4.74
12.45
18.36
22.92
26.51
29.40
31.79
33.86
35.73
37.47
39.06
40.42
41.46
42.21
42.77
43.32
44.03
45.00
46.14
47.26
48.14
48.53
48.31
47.37
45.68
43.29
40.40
37.26
34.16
31.35
28.89
26.69
24.64
22.68
20.87
19.29
17.98
16.86
15.71
14.25
12.28
9.75
6.81
3.70
0.71
-1.99
-4.30
-6.28
-8.07
-9.84
-11.77
-13.93
-16.40
-19.20
-22.37
-25.93
-29.80
-33.82
-37.81
-41.58
-45.19
-48.89
-53.14
-58.35
-64.70
-71.81
-78.79
-84.28
-86.89
-85.54
-79.78
-69.94
-57.01
-42.45
-27.84
-14.61
-3.76
4.35
9.95
13.73
16.59
19.36
22.45
25.96
29.62
33.05
35.94
38.12
39.56
40.34
40.67
40.79
40.99
41.53
42.51
43.82
45.17
46.17
46.48
45.98
44.71
42.89
40.72
38.40
35.97
33.43
30.79
28.01
25.13
22.16
19.21
16.32
13.61
11.16
9.01
7.08
5.24
3.36
1.29
-0.94
-3.24
-5.51
-7.68
-9.85
-12.24
-15.05
-18.40
-22.24
-26.32
-30.38
-34.20
-37.69
-40.99
-44.36
-48.15
-52.66
-58.00
-63.93
-69.84
-74.71
-77.37
-76.72
-72.07
-63.40
-51.39
-37.36
-22.88
-9.45
1.86
10.59
16.83
21.10
24.07
26.32
28.24
30.06
31.81
33.50
35.10
36.52
37.70
38.61
39.30
39.92
40.65
41.62
42.82
44.11
45.21
45.85
45.79
44.94
43.33
41.15
38.70
36.26
34.05
32.12
30.36
28.55
26.54
24.29
21.92
19.62
17.50
15.52
13.57
11.55
9.48
7.49
5.71
4.13
2.59
0.85
-1.25
-3.68
-6.25
-8.70
-10.97
-13.15
-15.49
-18.21
-21.43
-25.08
-29.06
-33.22
-37.47
-41.73
-45.89
-49.91
-53.91
-58.21
-63.21
-69.13
-75.72
-82.11
-86.91
-88.70
-86.43
-79.77
-69.23
-55.90
-41.24
-26.68
-13.45
-2.37
6.14
12.21
16.31
19.17
21.48
23.72
26.09
28.59
31.18
33.81
36.45
39.05
41.48
43.59
45.31
46.71
47.99
49.29
50.62
51.74
52.32
52.04
50.86
49.03
46.91
44.83
42.91
41.13
39.34
37.46
35.52
33.63
31.84
30.08
28.19
26.01
23.53
20.91
18.35
16.02
13.96
12.02
9.97
7.66
5.01
2.12
-0.89
-3.81
-6.46
-8.77
-10.74
-12.47
-14.19
-16.18
-18.66
-21.70
-25.16
-28.77
-32.18
-35.19
-37.82
-40.43
-43.50
-47.55
-52.84
-59.27
-66.21
-72.66
-77.41
-79.25
-77.40
-71.60
-62.22
-50.26
-36.98
-23.76
-11.71
-1.60
6.29
12.09
16.26
19.40
22.03
24.47
26.83
28.96
30.64
31.75
32.33
32.59
32.82
33.28
34.09
35.23
36.57
37.89
39.04
39.83
40.18
40.05
39.49
38.52
37.19
35.49
33.44
31.12
28.61
26.05
23.52
21.02
18.44
15.64
12.47
8.87
4.90
0.82
-3.07
-6.46
-9.17
-11.24
-12.90
-14.57
-16.62
-19.29
-22.62
-26.38
-30.20
-33.76
-36.95
-39.90
-43.00
-46.68
-51.34
-57.08
-63.69
-70.56
-76.73
-81.05
-82.43
-80.05
-73.64
-63.58
-50.82
-36.69
-22.58
-9.67
1.23
9.78
16.11
20.65
23.94
26.47
28.62
30.52
32.21
33.64
34.81
35.73
36.47
37.17
38.01
39.16
40.73
42.71
44.88
46.85
48.20
48.56
47.80
46.07
43.68
41.00
38.36
35.94
33.83
32.01
30.39
28.85
27.23
25.39
23.26
20.85
18.24
15.60
13.09
10.83
8.80
6.86
4.77
2.31
-0.59
-3.82
-7.17
-10.38
-13.32
-16.00
-18.58
-21.28
-24.21
-27.40
-30.77
-34.18
-37.55
-40.88
-44.23
-47.78
-51.80
-56.62
-62.43
-69.10
-76.08
-82.28
-86.37
-87.06
-83.51
-75.60
-63.95
-49.84
-34.84
-20.53
-8.13
1.70
8.92
13.96
17.51
20.27
22.73
25.18
27.74
30.43
33.26
36.12
38.89
41.40
43.48
45.12
46.43
47.64
48.87
50.11
51.17
51.77
51.66
50.72
48.98
46.62
43.87
40.98
38.19
35.64
33.37
31.37
29.54
27.75
25.90
23.90
21.74
19.44
17.03
14.58
12.09
9.63
7.19
4.74
2.28
-0.22
-2.74
-5.26
-7.78
-10.33
-12.96
-15.77
-18.81
-22.12
-25.66
-29.31
-32.92
-36.37
-39.62
-42.79
-46.17
-50.14
-55.07
-61.03
-67.68
-74.18
-79.35
-81.87
-80.67
-75.23
-65.80
-53.35
-39.27
-25.10
-12.16
-1.32
7.02
12.91
16.80
19.31
21.14
22.87
24.75
26.80
28.81
30.56
31.99
33.21
34.40
35.76
37.27
38.82
40.33
41.75
43.06
44.20
44.97
45.08
44.29
42.59
40.20
37.52
34.96
32.76
30.96
29.43
28.00
26.57
25.12
23.71
22.34
21.02
19.69
18.32
16.89
15.42
13.93
12.42
10.79
8.88
6.52
3.59
0.15
-3.63
-7.41
-10.90
-13.92
-16.54
-19.03
-21.75
-25.02
-28.89
-33.20
-37.59
-41.75
-45.58
-49.32
-53.51
-58.70
-65.26
-73.09
-81.55
-89.47
-95.46
-98.13
-96.50
-90.22
-79.71
-66.06
-50.87
-35.79
-22.33
-11.42
-3.42
1.90
5.10
6.96
8.12
9.07
9.98
10.84
11.48
11.75
11.58
11.01
10.23
9.43
8.76
8.24
7.76
7.06
5.87
3.90
0.94
-3.14
-8.39
-14.71
-21.96
-29.89
-38.25
-46.88
-55.74
-64.94
-74.61
-84.80
-95.42
-106.20
-116.62
-126.10
-133.99
-139.62
-142.21
-140.86
-134.66
-122.96
-105.50
-82.63
-55.25
-24.69
7.50
39.76
70.57
98.54
122.45
141.26
154.31
161.37
162.73
159.07
151.41
140.83
128.42
115.15
101.80
88.87
76.46
64.34
52.02
38.96
24.98
10.51
-3.35
-15.04
-23.00
-26.15
-24.21
-17.77
-8.14
3.03
14.10
23.79
31.29
36.40
39.32
40.60
40.91
40.90
41.05
41.59
42.52
43.62
44.67
45.49
46.09
46.61
47.24
48.11
49.21
50.37
51.39
52.08
52.31
52.00
51.13
49.70
47.73
45.36
42.77
40.19
37.80
35.66
33.75
31.97
30.20
28.35
26.39
24.32
22.19
20.01
17.82
15.67
13.62
11.66
9.73
7.73
5.53
3.06
0.38
-2.35
-4.96
-7.34
-9.57
-11.84
-14.45
-17.64
-21.52
-26.05
-31.05
-36.26
-41.42
-46.30
-50.75
-54.84
-58.84
-63.21
-68.40
-74.59
-81.43
-88.00
-92.91
-94.73
-92.36
-85.40
-74.25
-59.99
-44.08
-28.09
-13.39
-1.00
8.52
15.15
19.26
21.54
22.75
23.56
24.42
25.58
27.14
29.11
31.43
33.98
36.61
39.16
41.56
43.85
46.13
48.47
50.84
53.09
54.92
56.02
56.14
55.17
53.17
50.40
47.21
43.98
41.00
38.39
36.08
33.84
31.47
28.87
26.12
23.42
20.98
18.92
17.22
15.73
14.23
12.51
10.45
7.97
5.13
2.02
-1.28
-4.67
-8.16
-11.79
-15.59
-19.62
-23.84
-28.20
-32.59
-36.94
-41.17
-45.26
-49.26
-53.32
-57.67
-62.64
-68.41
-74.99
-81.97
-88.43
-93.12
-94.71
-92.14
-84.98
-73.63
-59.17
-43.14
-27.19
-12.71
-0.63
8.68
15.34
19.80
22.70
24.71
26.38
28.06
29.92
31.97
34.12
36.23
38.23
40.07
41.82
43.58
45.43
47.36
49.23
50.81
51.83
52.12
51.63
50.43
48.64
46.37
43.71
40.73
37.52
34.19
30.93
27.85
25.01
22.34
19.69
16.89
13.83
10.51
7.03
3.55
0.15
-3.17
-6.59
-10.33
-14.54
-19.24
-24.25
-29.22
-33.83
-37.86
-41.26
-44.17
-46.91
-49.87
-53.51
-58.19
-64.08
-70.99
-78.23
-84.64
-88.80
-89.34
-85.35
-76.72
-64.15
-49.04
-33.12
-17.96
-4.76
5.91
13.99
19.80
23.79
26.49
28.32
29.69
31.01
32.55
34.45
36.63
38.84
40.85
42.52
43.87
45.05
46.20
47.33
48.34
49.06
49.35
49.09
48.29
46.94
45.07
42.72
40.01
37.19
34.54
32.32
30.61
29.35
28.32
27.33
26.25
25.02
23.73
22.40
21.04
19.57
17.89
15.89
13.51
10.76
7.71
4.51
1.24
-2.03
-5.35
-8.79
-12.45
-16.38
-20.56
-24.95
-29.51
-34.16
-38.84
-43.43
-47.86
-52.09
-56.28
-60.72
-65.82
-71.88
-78.82
-86.06
-92.50
-96.75
-97.44
-93.67
-85.28
-72.89
-57.80
-41.57
-25.77
-11.58
0.28
9.54
16.30
20.92
23.92
25.90
27.47
29.10
31.05
33.34
35.81
38.23
40.48
42.54
44.52
46.52
48.60
50.68
52.58
54.04
54.82
54.73
53.70
51.78
49.13
46.02
42.69
39.39
36.27
33.43
30.87
28.55
26.42
24.44
22.66
21.13
19.90
18.99
18.33
17.72
16.91
15.70
13.93
11.57
8.73
5.55
2.21
-1.22
-4.72
-8.40
-12.32
-16.58
-21.13
-25.88
-30.70
-35.44
-39.94
-44.09
-47.86
-51.38
-55.04
-59.32
-64.68
-71.30
-78.85
-86.43
-92.69
-96.14
-95.53
-90.24
-80.42
-67.03
-51.55
-35.71
-21.07
-8.67
1.04
8.19
13.32
17.10
20.16
22.89
25.49
28.03
30.52
33.00
35.54
38.17
40.87
43.51
45.93
47.97
49.55
50.61
51.07
50.84
49.87
48.15
45.78
43.02
40.10
37.27
34.59
32.08
29.65
27.26
24.85
22.44
20.02
17.56
14.99
12.25
9.30
6.20
3.07
0.01
-2.87
-5.55
-8.10
-10.64
-13.36
-16.46
-20.04
-24.15
-28.71
-33.61
-38.68
-43.78
-48.83
-53.91
-59.25
-65.17
-71.90
-79.37
-87.06
-93.86
-98.29
-98.82
-94.42
-84.87
-70.99
-54.36
-36.99
-20.73
-6.97
3.68
11.34
16.62
20.38
23.37
26.07
28.69
31.21
33.55
35.71
37.78
39.81
41.84
43.78
45.54
47.13
48.70
50.39
52.30
54.30
56.05
57.13
57.17
56.07
53.97
51.25
48.35
45.58
43.12
40.94
38.92
36.93
34.87
32.72
30.50
28.19
25.77
23.21
20.55
17.89
15.38
13.11
11.07
9.12
7.05
4.65
1.85
-1.31
-4.60
-7.82
-10.89
-13.89
-17.07
-20.65
-24.74
-29.20
-33.74
-38.02
-41.83
-45.20
-48.38
-51.73
-55.65
-60.48
-66.40
-73.45
-81.25
-89.02
-95.55
-99.38
-99.16
-94.10
-84.21
-70.40
-54.21
-37.43
-21.67
-8.08
2.74
10.77
16.37
20.17
22.81
24.87
26.71
28.52
30.30
32.05
33.74
35.46
37.30
39.39
41.76
44.36
47.09
49.76
52.18
54.10
55.34
55.72
55.22
53.87
51.81
49.26
46.39
43.38
40.30
37.23
34.24
31.37
28.63
25.94
23.16
20.17
16.90
13.36
9.66
5.95
2.31
-1.25
-4.83
-8.53
-12.46
-16.64
-21.02
-25.52
-30.03
-34.47
-38.79
-42.97
-47.14
-51.54
-56.47
-62.28
-69.13
-76.84
-84.69
-91.46
-95.61
-95.73
-90.94
-81.27
-67.69
-51.85
-35.60
-20.50
-7.50
3.09
11.42
17.84
22.74
26.45
29.24
31.39
33.16
34.74
36.24
37.68
39.05
40.33
41.54
42.69
43.81
44.94
46.13
47.37
48.52
49.28
49.28
48.18
45.81
42.27
37.92
33.23
28.61
24.28
20.24
16.32
12.33
8.11
3.64
-0.92
-5.33
-9.35
-12.86
-16.00
-19.07
-22.54
-26.77
-31.84
-37.51
-43.28
-48.65
-53.25
-57.14
-60.79
-64.93
-70.35
-77.44
-85.98
-95.01
-102.92
-107.88
-108.31
-103.32
-93.01
-78.35
-60.92
-42.59
-25.04
-9.57
3.15
13.03
20.52
26.32
31.22
35.82
40.39
44.93
49.20
52.99
56.16
58.68
60.65
62.25
63.70
65.23
66.99
69.01
71.18
73.22
74.82
75.70
75.72
74.80
73.01
70.47
67.32
63.78
60.06
56.34
52.74
49.23
45.68
41.96
38.06
34.10
30.33
27.00
24.25
21.98
19.87
17.53
14.59
10.89
6.48
1.60
-3.41
-8.31
-13.00
-17.54
-22.13
-27.00
-32.33
-38.14
-44.24
-50.30
-55.96
-60.93
-65.23
-69.13
-73.18
-78.03
-84.18
-91.73
-100.17
-108.43
-114.88
-117.78
-115.70
-107.94
-94.81
-77.56
-58.08
-38.45
-20.42
-5.14
6.94
16.01
22.59
27.37
30.98
33.95
36.57
39.04
41.40
43.63
45.62
47.34
48.72
49.88
50.97
52.23
53.83
55.85
58.19
60.60
62.67
63.98
64.20
63.20
61.09
58.23
55.15
52.28
49.86
47.85
45.96
43.83
41.22
38.11
34.70
31.33
28.23
25.48
22.94
20.36
17.49
14.22
10.57
6.63
2.55
-1.62
-5.91
-10.38
-15.11
-20.11
-25.29
-30.55
-35.73
-40.74
-45.60
-50.36
-55.21
-60.38
-66.13
-72.73
-80.37
-88.97
-98.04
-106.50
-112.81
-115.25
-112.45
-103.78
-89.68
-71.57
-51.52
-31.68
-13.82
1.00
12.47
20.89
26.88
31.17
34.40
37.06
39.47
41.73
43.79
45.53
46.74
47.36
47.48
47.39
47.50
48.13
49.35
50.89
52.27
52.92
52.46
50.83
48.28
45.19
41.89
38.56
35.18
31.66
27.92
23.94
19.80
15.61
11.43
7.31
3.18
-1.03
-5.41
-10.07
-15.06
-20.34
-25.88
-31.54
-37.18
-42.71
-48.07
-53.41
-59.06
-65.46
-72.99
-81.62
-90.65
-98.66
-103.83
-104.38
-99.28
-88.54
-73.28
-55.37
-36.87
-19.47
-4.31
8.10
17.75
24.98
30.28
34.24
37.42
40.29
43.15
46.04
48.81
51.22
53.09
54.44
55.45
56.46
57.73
59.38
61.35
63.35
65.06
66.17
66.46
65.85
64.32
61.96
59.00
55.73
52.44
49.39
46.64
44.08
41.53
38.77
35.72
32.41
29.00
25.63
22.38
19.22
16.06
12.83
9.48
5.99
2.33
-1.55
-5.63
-9.83
-14.02
-18.11
-22.08
-26.07
-30.27
-34.85
-39.79
-44.89
-49.81
-54.31
-58.35
-62.16
-66.19
-71.03
-77.17
-84.86
-93.92
-103.52
-112.22
-118.19
-119.60
-115.18
-104.62
-88.80
-69.57
-49.20
-29.86
-13.05
0.53
10.90
18.55
24.14
28.34
31.77
34.87
37.98
41.22
44.51
47.62
50.35
52.60
54.45
56.09
57.71
59.48
61.34
63.16
64.70
65.70
65.94
65.31
63.80
61.56
58.77
55.65
52.42
49.17
45.97
42.83
39.76
36.81
34.08
31.59
29.34
27.16
24.88
22.37
19.63
16.77
14.00
11.38
8.89
6.34
3.58
0.56
-2.65
-5.90
-9.15
-12.43
-15.89
-19.70
-23.88
-28.35
-32.96
-37.56
-42.04
-46.36
-50.42
-54.20
-57.71
-61.16
-64.98
-69.65
-75.54
-82.54
-89.93
-96.40
-100.30
-100.17
-95.10
-85.06
-70.90
-54.12
-36.49
-19.67
-4.90
7.14
16.27
22.69
26.83
29.18
30.27
30.67
30.91
31.48
32.70
34.63
37.09
39.77
42.36
44.72
46.90
49.02
51.16
53.25
55.09
56.40
56.94
56.60
55.40
53.48
51.04
48.29
45.37
42.35
39.22
36.00
32.70
29.39
26.21
23.25
20.55
18.12
15.90
13.82
11.84
9.85
7.68
5.12
1.91
-2.00
-6.50
-11.23
-15.77
-19.81
-23.29
-26.49
-29.83
-33.69
-38.24
-43.27
-48.42
-53.26
-57.56
-61.42
-65.27
-69.70
-75.25
-82.13
-90.05
-98.13
-104.96
-108.89
-108.47
-102.77
-91.78
-76.35
-58.06
-38.80
-20.38
-4.15
9.06
19.07
26.17
30.94
34.11
36.39
38.34
40.32
42.41
44.58
46.67
48.54
50.19
51.70
53.24
54.96
56.96
59.13
61.30
63.17
64.44
64.84
64.18
62.40
59.57
55.90
51.76
47.53
43.54
40.01
36.96
34.27
31.75
29.20
26.54
23.78
21.03
18.44
16.13
14.12
12.37
10.79
9.25
7.59
5.68
3.41
0.67
-2.52
-6.01
-9.52
-12.75
-15.58
-18.07
-20.54
-23.38
-26.88
-31.05
-35.64
-40.27
-44.61
-48.56
-52.26
-56.06
-60.38
-65.61
-71.94
-79.31
-87.19
-94.61
-100.20
-102.44
-100.07
-92.50
-80.02
-63.84
-45.80
-27.89
-11.79
1.37
11.23
18.03
22.44
25.27
27.17
28.58
29.70
30.61
31.44
32.32
33.43
34.87
36.62
38.57
40.59
42.60
44.60
46.49
48.14
49.32
49.80
49.42
48.15
46.10
43.41
40.25
36.78
33.19
29.68
26.42
23.45
20.68
17.90
14.91
11.61
8.10
4.62
1.40
-1.41
-3.88
-6.26
-8.83
-11.83
-15.35
-19.37
-23.76
-28.41
-33.22
-38.11
-43.00
-47.83
-52.62
-57.55
-62.92
-69.12
-76.35
-84.44
-92.59
-99.47
-103.45
-103.08
-97.52
-86.80
-71.89
-54.38
-36.11
-18.80
-3.69
8.58
17.94
24.72
29.53
32.98
35.63
37.81
39.68
41.28
42.57
43.60
44.45
45.27
46.25
47.59
49.42
51.72
54.36
57.04
59.40
61.02
61.54
60.79
58.78
55.77
52.17
48.44
44.95
41.86
39.15
36.57
33.91
31.01
27.91
24.80
21.94
19.49
17.52
15.99
14.74
13.60
12.36
10.85
8.93
6.55
3.72
0.52
-2.86
-6.32
-9.75
-13.14
-16.55
-20.00
-23.59
-27.38
-31.46
-35.83
-40.47
-45.25
-49.94
-54.38
-58.55
-62.69
-67.35
-73.13
-80.39
-88.98
-97.89
-105.46
-109.73
-109.01
-102.49
-90.47
-74.25
-55.80
-37.16
-20.05
-5.56
5.84
14.25
20.05
23.87
26.39
28.26
30.01
32.04
34.51
37.35
40.33
43.11
45.43
47.24
48.74
50.28
52.16
54.45
56.87
58.89
59.96
59.73
58.24
55.87
53.12
50.39
47.87
45.48
43.10
40.66
38.21
35.87
33.68
31.63
29.60
27.49
25.32
23.22
21.27
19.50
17.83
16.09
14.13
11.86
9.31
6.48
3.40
0.05
-3.53
-7.25
-10.99
-14.58
-17.95
-21.18
-24.45
-27.91
-31.65
-35.54
-39.35
-42.86
-45.96
-48.74
-51.53
-54.75
-58.82
-64.03
-70.41
-77.64
-84.94
-91.11
-94.75
-94.52
-89.60
-79.96
-66.44
-50.56
-34.07
-18.60
-5.30
5.29
13.18
18.79
22.69
25.51
27.70
29.54
31.10
32.42
33.52
34.51
35.63
37.04
38.84
40.95
43.27
45.65
48.02
50.33
52.41
53.95
54.57
53.97
52.05
49.07
45.55
42.02
38.92
36.38
34.28
32.42
30.59
28.66
26.60
24.37
21.96
19.34
16.56
13.73
10.99
8.46
6.15
3.94
1.63
-0.94
-3.79
-6.84
-9.94
-12.95
-15.92
-19.02
-22.46
-26.40
-30.88
-35.72
-40.68
-45.52
-50.05
-54.23
-58.20
-62.24
-66.73
-72.02
-78.25
-85.21
-92.19
-98.05
-101.35
-100.78
-95.48
-85.42
-71.43
-54.97
-37.78
-21.41
-7.02
4.78
13.81
20.29
24.64
27.42
29.28
30.77
32.31
34.06
36.02
38.04
39.99
41.81
43.53
45.21
46.95
48.81
50.82
52.98
55.17
57.21
58.79
59.57
59.27
57.77
55.20
51.88
48.26
44.68
41.38
38.37
35.56
32.88
30.28
27.76
25.30
22.89
20.48
18.08
15.70
13.38
11.13
8.91
6.58
3.99
1.05
-2.27
-5.80
-9.35
-12.73
-15.83
-18.73
-21.61
-24.73
-28.21
-32.02
-35.94
-39.68
-43.08
-46.12
-48.98
-51.93
-55.32
-59.52
-64.76
-71.07
-78.10
-84.99
-90.49
-93.14
-91.74
-85.71
-75.27
-61.39
-45.54
-29.28
-13.95
-0.57
10.27
18.33
23.70
26.77
28.18
28.60
28.69
28.88
29.39
30.26
31.43
32.81
34.33
35.95
37.61
39.22
40.77
42.19
43.50
44.65
45.56
46.08
45.99
45.11
43.34
40.71
37.41
33.72
29.97
26.37
23.04
19.90
16.85
13.77
10.62
7.45
4.40
1.58
-0.99
-3.41
-5.94
-8.87
-12.40
-16.60
-21.32
-26.29
-31.18
-35.73
-39.83
-43.60
-47.37
-51.57
-56.61
-62.75
-69.89
-77.44
-84.32
-89.09
-90.36
-87.08
-78.93
-66.45
-50.93
-34.12
-17.76
-3.28
8.48
17.29
23.38
27.27
29.51
30.61
31.02
31.08
31.08
31.27
31.79
32.74
34.12
35.86
37.90
40.16
42.59
45.14
47.74
50.26
52.49
54.16
54.95
54.66
53.25
50.90
48.02
45.03
42.26
39.76
37.42
35.02
32.40
29.61
26.81
24.16
21.72
19.43
17.09
14.53
11.65
8.46
4.96
1.27
-2.54
-6.28
-9.73
-12.71
-15.15
-17.16
-19.06
-21.25
-24.10
-27.79
-32.28
-37.34
-42.68
-48.05
-53.33
-58.59
-64.08
-70.07
-76.79
-84.18
-91.75
-98.57
-103.32
-104.65
-101.53
-93.55
-81.07
-65.21
-47.54
-29.79
-13.51
0.19
10.78
18.25
23.10
26.10
28.05
29.66
31.39
33.45
35.83
38.36
40.77
42.86
44.52
45.86
47.12
48.53
50.22
52.10
53.97
55.54
56.56
56.90
56.48
55.29
53.37
50.85
47.91
44.84
41.83
38.95
36.15
33.28
30.29
27.17
24.06
21.10
18.40
15.92
13.62
11.41
9.21
6.97
4.64
2.18
-0.44
-3.18
-5.94
-8.63
-11.22
-13.80
-16.59
-19.84
-23.71
-28.16
-32.95
-37.73
-42.25
-46.41
-50.42
-54.65
-59.52
-65.30
-71.92
-78.85
-85.15
-89.57
-90.84
-88.03
-80.76
-69.42
-55.04
-39.12
-23.24
-8.78
3.35
12.75
19.49
23.87
26.40
27.54
27.70
27.24
26.45
25.60
24.98
24.76
25.08
25.98
27.40
29.27
31.49
33.93
36.50
39.03
41.25
42.88
43.63
43.33
41.98
39.79
37.12
34.31
31.58
28.89
26.02
22.70
18.78
14.36
9.76
5.34
1.32
-2.35
-5.94
-9.83
-14.19
-18.99
-23.96
-28.76
-33.18
-37.25
-41.21
-45.46
-50.40
-56.36
-63.42
-71.42
-79.78
-87.53
-93.39
-95.99
-94.22
-87.54
-76.24
-61.45
-44.85
-28.28
-13.24
-0.64
9.28
16.78
22.35
26.46
29.46
31.58
32.97
33.76
34.03
33.87
33.40
32.81
32.43
32.64
33.71
35.62
37.99
40.15
41.37
41.11
39.27
36.11
32.10
27.63
22.89
17.85
12.37
6.47
0.35
-5.65
-11.29
-16.44
-21.26
-26.01
-31.00
-36.54
-42.89
-50.27
-58.71
-67.87
-76.84
-84.20
-88.25
-87.53
-81.38
-70.21
-55.44
-39.06
-23.03
-8.79
2.97
12.20
19.24
24.54
28.49
31.36
33.42
34.88
35.90
36.50
36.62
36.15
35.10
33.63
32.15
31.09
30.80
31.39
32.61
33.99
34.97
35.07
34.05
31.94
29.03
25.74
22.48
19.44
16.53
13.40
9.65
4.97
-0.62
-6.77
-12.95
-18.70
-23.88
-28.77
-33.98
-40.27
-48.19
-57.79
-68.44
-78.78
-86.93
-90.95
-89.34
-81.56
-68.33
-51.34
-32.89
-15.21
0.04
12.02
20.74
26.71
30.68
33.31
35.08
36.23
36.76
36.60
35.67
34.02
31.83
29.50
27.52
26.35
26.34
27.63
30.12
33.55
37.53
41.57
45.12
47.63
48.62
47.85
45.35
41.51
36.92
32.19
27.84
24.10
21.05
18.66
16.90
15.76
15.23
15.20
15.48
15.85
16.16
16.44
16.87
17.71
19.21
21.52
24.62
28.31
32.17
35.66
38.16
39.20
38.47
35.91
31.62
25.72
18.17
8.82
-2.51
-15.77
-30.40
-45.37
-59.27
-70.69
-78.48
-82.00
-81.15
-76.31
-68.13
-57.48
-45.32
-32.64
-20.43
-9.51
-0.46
6.55
11.67
15.27
17.83
19.78
21.42
22.90
24.30
25.68
27.18
28.97
31.22
34.01
37.26
40.69
43.87
46.32
47.66
47.70
46.51
44.35
41.56
38.44
35.18
31.85
28.42
24.78
20.81
16.41
11.52
6.17
0.46
-5.45
-11.45
-17.46
-23.62
-30.21
-37.49
-45.61
-54.28
-62.74
-69.77
-73.95
-74.04
-69.39
-60.17
-47.33
-32.32
-16.80
-2.12
10.76
21.43
29.86
36.25
40.89
44.09
46.17
47.43
48.21
48.89
49.79
51.19
53.25
56.03
59.40
63.05
66.50
69.19
70.56
70.29
68.37
65.10
60.92
56.22
51.17
45.72
39.80
33.43
26.86
20.58
15.07
10.65
7.39
5.10
3.53
2.44
1.72
1.38
1.44
1.94
2.93
4.51
6.79
9.73
13.00
15.73
16.62
14.21
7.48
-3.75
-18.52
-35.00
-50.97
-64.44
-74.12
-79.53
-80.87
-78.83
-74.34
-68.47
-62.35
-57.07
-53.45
-51.93
-52.45
-54.51
-57.42
-60.46
-63.04
-64.72
-65.25
-64.55
-62.59
-59.46
-55.26
-50.12
-44.12
-37.35
-29.93
-22.08
-14.18
-6.65
0.12
5.87
10.53
14.21
17.11
19.47
21.43
23.09
24.43
25.44
26.02
26.15
25.82
25.10
24.11
23.00
21.84
20.60
19.10
17.13
14.54
11.29
7.55
3.61
-0.24
-3.80
-7.09
-10.27
-13.63
-17.37
-21.54
-26.03
-30.66
-35.26
-39.79
-44.36
-49.20
-54.66
-61.10
-68.76
-77.62
-87.12
-96.11
-102.96
-105.84
-103.33
-94.84
-80.94
-63.14
-43.51
-24.11
-6.54
8.25
19.92
28.56
34.51
38.26
40.37
41.43
42.00
42.47
43.00
43.51
43.83
43.83
43.57
43.34
43.52
44.43
46.10
48.27
50.46
52.11
52.76
52.15
50.19
46.95
42.68
37.64
32.24
26.79
21.46
16.25
11.00
5.47
-0.46
-6.71
-13.00
-18.90
-24.09
-28.47
-32.28
-36.06
-40.49
-46.21
-53.54
-62.26
-71.48
-79.71
-85.13
-86.08
-81.55
-71.49
-56.88
-39.45
-21.20
-3.94
11.07
23.11
32.04
38.05
41.60
43.30
43.79
43.71
43.46
43.27
43.10
42.83
42.33
41.59
40.82
40.26
40.23
40.89
42.17
43.76
45.16
45.78
45.11
42.90
39.18
34.29
28.75
23.11
17.74
12.69
7.75
2.57
-3.17
-9.56
-16.41
-23.25
-29.64
-35.29
-40.32
-45.22
-50.72
-57.55
-66.06
-76.05
-86.57
-96.07
-102.63
-104.48
-100.44
-90.35
-75.09
-56.50
-36.77
-17.98
-1.64
11.52
21.47
28.68
33.85
37.63
40.56
42.99
45.11
47.00
48.67
50.15
51.50
52.82
54.21
55.77
57.53
59.46
61.46
63.33
64.80
65.66
65.72
64.90
63.27
60.97
58.22
55.25
52.25
49.33
46.56
43.89
41.23
38.46
35.53
32.43
29.24
26.07
23.02
20.14
17.44
14.86
12.34
9.72
6.89
3.76
0.37
-3.17
-6.69
-10.00
-13.08
-16.02
-19.05
-22.51
-26.60
-31.47
-36.98
-42.89
-48.85
-54.61
-60.01
-65.17
-70.44
-76.36
-83.44
-91.91
-101.44
-110.98
-118.83
-123.02
-121.77
-114.09
-100.14
-81.25
-59.59
-37.58
-17.34
-0.28
13.05
22.84
29.66
34.33
37.54
39.91
41.85
43.66
45.52
47.52
49.62
51.73
53.72
55.53
57.15
58.69
60.22
61.77
63.25
64.43
65.05
64.84
63.65
61.54
58.71
55.47
52.15
49.00
46.11
43.48
41.00
38.54
35.97
33.18
30.14
26.89
23.56
20.36
17.48
15.03
12.95
11.05
9.07
6.82
4.21
1.31
-1.68
-4.54
-7.12
-9.45
-11.79
-14.59
-18.25
-23.05
-28.85
-35.18
-41.38
-46.90
-51.54
-55.55
-59.57
-64.39
-70.69
-78.68
-87.95
-97.31
-105.00
-108.99
-107.62
-100.05
-86.66
-68.93
-49.06
-29.36
-11.70
2.78
13.68
21.25
26.07
28.91
30.46
31.29
31.76
32.02
32.15
32.20
32.30
32.61
33.33
34.59
36.38
38.65
41.26
43.95
46.42
48.21
48.91
48.26
46.28
43.28
39.76
36.19
32.79
29.54
26.14
22.33
18.05
13.50
9.04
4.99
1.44
-1.81
-5.16
-9.02
-13.63
-18.88
-24.45
-29.90
-34.90
-39.38
-43.57
-47.90
-52.96
-59.28
-67.15
-76.39
-86.17
-94.99
-100.98
-102.35
-97.89
-87.44
-71.98
-53.31
-33.65
-15.01
1.18
14.22
24.06
31.13
35.98
39.17
41.14
42.21
42.66
42.74
42.75
42.90
43.32
44.03
44.98
46.15
47.55
49.22
51.18
53.28
55.21
56.62
57.15
56.64
55.16
52.95
50.35
47.68
45.17
42.95
41.03
39.31
37.60
35.72
33.52
31.01
28.23
25.34
22.52
19.85
17.37
14.98
12.56
9.93
6.99
3.68
0.02
-3.85
-7.84
-11.83
-15.82
-19.90
-24.18
-28.81
-33.85
-39.29
-44.98
-50.76
-56.38
-61.71
-66.80
-71.92
-77.62
-84.48
-92.87
-102.56
-112.54
-121.00
-125.80
-125.09
-117.87
-104.46
-86.37
-65.89
-45.40
-26.81
-11.20
1.14
10.47
17.38
22.54
26.61
30.12
33.55
37.11
40.82
44.57
48.10
51.26
53.95
56.25
58.25
60.06
61.74
63.35
64.89
66.31
67.46
68.09
67.92
66.74
64.58
61.67
58.45
55.31
52.53
50.13
47.95
45.76
43.41
40.84
38.11
35.31
32.51
29.66
26.70
23.57
20.32
17.07
14.06
11.46
9.32
7.53
5.82
3.86
1.40
-1.66
-5.21
-9.01
-12.77
-16.27
-19.49
-22.59
-25.84
-29.53
-33.83
-38.73
-44.03
-49.43
-54.65
-59.61
-64.40
-69.34
-74.86
-81.43
-89.25
-98.09
-107.10
-114.77
-119.17
-118.47
-111.50
-98.21
-79.83
-58.50
-36.74
-16.79
-0.18
12.45
21.18
26.59
29.51
30.83
31.41
31.90
32.69
33.96
35.60
37.46
39.39
41.33
43.30
45.34
47.50
49.79
52.15
54.44
56.47
57.92
58.55
58.19
56.89
54.96
52.74
50.52
48.38
46.18
43.67
40.72
37.33
33.72
30.11
26.67
23.40
20.23
16.99
13.61
10.08
6.50
2.97
-0.40
-3.61
-6.79
-10.15
-13.95
-18.35
-23.36
-28.81
-34.40
-39.84
-44.96
-49.78
-54.54
-59.66
-65.60
-72.69
-80.84
-89.39
-97.02
-102.00
-102.61
-97.69
-87.04
-71.56
-52.98
-33.50
-15.14
0.66
13.13
22.22
28.27
31.88
33.64
34.12
33.81
33.13
32.44
31.96
31.83
32.08
32.70
33.72
35.24
37.35
40.03
43.15
46.39
49.29
51.36
52.23
51.72
49.90
47.03
43.46
39.56
35.53
31.49
27.41
23.18
18.74
14.05
9.19
4.34
-0.26
-4.40
-8.01
-11.19
-14.26
-17.60
-21.53
-26.15
-31.28
-36.60
-41.75
-46.56
-51.07
-55.63
-60.73
-66.85
-74.35
-83.21
-92.87
-102.16
-109.37
-112.61
-110.33
-101.81
-87.54
-69.09
-48.76
-28.84
-11.08
3.59
15.05
23.66
30.01
34.63
38.04
40.67
42.97
45.23
47.59
49.98
52.19
53.98
55.31
56.28
57.19
58.26
59.59
61.04
62.31
63.07
63.13
62.43
61.04
59.04
56.50
53.44
49.99
46.35
42.80
39.58
36.77
34.35
32.19
30.20
28.34
26.64
25.08
23.58
22.02
20.27
18.22
15.84
13.10
9.99
6.51
2.65
-1.49
-5.78
-10.03
-14.15
-18.15
-22.17
-26.43
-31.09
-36.17
-41.55
-46.96
-52.10
-56.84
-61.22
-65.51
-70.12
-75.52
-82.12
-90.13
-99.29
-108.69
-116.75
-121.44
-120.81
-113.60
-99.77
-80.63
-58.48
-36.01
-15.57
1.33
14.20
23.32
29.47
33.53
36.28
38.29
39.96
41.54
43.14
44.84
46.58
48.27
49.85
51.36
52.94
54.80
57.09
59.77
62.56
65.01
66.66
67.18
66.46
64.59
61.81
58.37
54.53
50.47
46.37
42.38
38.63
35.20
32.13
29.39
26.95
24.75
22.74
20.84
19.00
17.18
15.32
13.41
11.43
9.34
7.06
4.53
1.69
-1.46
-4.84
-8.31
-11.72
-14.96
-18.03
-21.05
-24.20
-27.70
-31.70
-36.23
-41.15
-46.24
-51.21
-55.87
-60.18
-64.40
-69.05
-74.76
-81.98
-90.61
-99.76
-107.77
-112.54
-112.14
-105.46
-92.64
-75.06
-54.89
-34.53
-16.04
-0.73
10.85
18.77
23.56
25.96
26.88
27.14
27.45
28.23
29.62
31.52
33.71
36.00
38.32
40.72
43.32
46.24
49.42
52.65
55.60
57.87
59.15
59.27
58.27
56.25
53.45
50.13
46.50
42.79
39.14
35.67
32.38
29.28
26.35
23.63
21.25
19.24
17.57
16.01
14.22
11.88
8.82
5.16
1.23
-2.61
-6.13
-9.35
-12.52
-15.97
-19.96
-24.57
-29.62
-34.86
-40.03
-44.93
-49.59
-54.24
-59.32
-65.39
-72.92
-82.00
-92.03
-101.56
-108.56
-110.88
-106.99
-96.52
-80.47
-60.84
-40.11
-20.58
-3.84
9.31
18.80
25.07
28.81
30.86
31.95
32.67
33.39
34.21
35.14
36.12
37.16
38.31
39.64
41.24
43.17
45.49
48.17
51.07
53.87
56.09
57.27
57.11
55.68
53.34
50.60
47.91
45.46
43.20
40.88
38.29
35.37
32.24
29.15
26.36
23.98
22.00
20.30
18.68
16.99
15.19
13.29
11.37
9.44
7.46
5.28
2.75
-0.26
-3.74
-7.58
-11.58
-15.55
-19.42
-23.28
-27.33
-31.81
-36.88
-42.50
-48.46
-54.43
-60.05
-65.07
-69.46
-73.45
-77.59
-82.60
-89.08
-97.24
-106.51
-115.49
-122.05
-123.98
-119.62
-108.50
-91.57
-70.86
-48.92
-28.06
-9.88
4.83
15.97
23.89
29.12
32.33
34.27
35.72
37.34
39.52
42.28
45.34
48.27
50.71
52.52
53.79
54.75
55.70
56.88
58.40
60.17
61.95
63.36
64.04
63.72
62.34
60.10
57.30
54.32
51.46
48.85
46.50
44.30
42.15
39.95
37.68
35.41
33.25
31.37
29.81
28.54
27.38
26.11
24.51
22.48
20.05
17.33
14.43
11.41
8.22
4.77
0.99
-3.12
-7.44
-11.78
-15.90
-19.61
-22.85
-25.74
-28.57
-31.68
-35.29
-39.41
-43.80
-48.09
-52.00
-55.48
-58.86
-62.72
-67.75
-74.40
-82.73
-92.13
-101.32
-108.50
-111.75
-109.53
-101.10
-86.90
-68.41
-47.85
-27.55
-9.44
5.27
16.18
23.46
27.74
29.82
30.56
30.76
31.04
31.74
32.90
34.36
35.85
37.19
38.37
39.58
41.08
43.06
45.51
48.18
50.68
52.56
53.51
53.38
52.18
50.04
47.11
43.56
39.60
35.51
31.56
28.01
24.99
22.41
20.01
17.50
14.66
11.44
8.02
4.67
1.63
-1.02
-3.46
-6.04
-9.17
-13.14
-18.00
-23.50
-29.21
-34.71
-39.68
-44.09
-48.22
-52.52
-57.56
-63.81
-71.44
-80.13
-88.88
-96.17
-100.15
-99.24
-92.55
-80.28
-63.67
-44.71
-25.57
-8.14
6.32
17.27
24.73
29.16
31.24
31.78
31.57
31.29
31.39
32.09
33.36
35.04
36.89
38.69
40.35
41.91
43.52
45.34
47.40
49.54
51.47
52.78
53.21
52.68
51.32
49.34
46.98
44.35
41.50
38.44
35.18
31.78
28.34
24.97
21.72
18.63
15.63
12.62
9.50
6.17
2.65
-1.01
-4.71
-8.36
-11.92
-15.40
-18.89
-22.51
-26.44
-30.86
-35.82
-41.25
-46.93
-52.51
-57.71
-62.47
-67.03
-71.98
-77.99
-85.61
-94.89
-105.06
-114.54
-121.21
-122.93
-118.33
-107.18
-90.57
-70.58
-49.68
-30.02
-13.13
0.35
10.39
17.44
22.22
25.47
27.93
30.16
32.56
35.27
38.25
41.32
44.29
47.01
49.44
51.63
53.73
55.93
58.32
60.82
63.17
65.01
65.99
65.92
64.79
62.83
60.32
57.53
54.66
51.85
49.20
46.73
44.44
42.26
40.12
38.00
35.96
34.14
32.58
31.22
29.87
28.31
26.38
24.10
21.63
19.11
16.67
14.15
11.31
7.91
3.88
-0.64
-5.30
-9.72
-13.65
-17.02
-20.08
-23.18
-26.72
-31.01
-36.15
-41.97
-48.15
-54.27
-59.96
-65.03
-69.63
-74.22
-79.48
-86.09
-94.36
-103.96
-113.81
-122.08
-126.68
-125.74
-118.24
-104.36
-85.50
-63.97
-42.32
-22.81
-6.89
4.92
12.93
17.98
21.11
23.28
25.27
27.56
30.39
33.74
37.44
41.26
44.95
48.40
51.61
54.73
57.93
61.25
64.62
67.71
70.18
71.68
71.99
71.05
69.01
66.14
62.74
59.15
55.63
52.29
49.22
46.37
43.67
41.08
38.56
36.06
33.55
30.95
28.24
25.46
22.64
19.87
17.21
14.68
12.18
9.56
6.65
3.35
-0.31
-4.19
-8.08
-11.81
-15.39
-19.01
-22.92
-27.40
-32.46
-37.90
-43.35
-48.43
-52.90
-56.79
-60.38
-64.17
-68.77
-74.73
-82.29
-91.11
-100.10
-107.48
-111.14
-109.24
-100.87
-86.42
-67.52
-46.58
-26.09
-8.04
6.40
16.92
23.81
27.79
29.69
30.36
30.52
30.70
31.22
32.20
33.63
35.44
37.55
39.87
42.33
44.90
47.57
50.32
53.05
55.54
57.42
58.26
57.83
56.14
53.52
50.52
47.63
45.16
43.14
41.31
39.33
36.97
34.11
30.89
27.55
24.39
21.60
19.26
17.29
15.51
13.67
11.51
8.79
5.42
1.42
-3.03
-7.64
-12.18
-16.51
-20.69
-24.93
-29.45
-34.37
-39.60
-44.91
-49.99
-54.67
-58.97
-63.20
-67.89
-73.67
-81.03
-90.04
-100.14
-109.99
-117.63
-120.93
-118.15
-108.58
-92.82
-72.70
-50.76
-29.64
-11.33
3.07
13.45
20.46
25.07
28.26
30.80
33.14
35.52
38.01
40.60
43.20
45.71
47.97
49.89
51.48
52.88
54.38
56.25
58.51
60.95
63.10
64.49
64.76
63.88
62.07
59.69
57.05
54.33
51.57
48.72
45.80
42.87
40.08
37.56
35.34
33.39
31.64
29.99
28.39
26.85
25.33
23.82
22.19
20.32
18.05
15.31
12.11
8.52
4.64
0.61
-3.46
-7.44
-11.23
-14.84
-18.34
-21.95
-25.92
-30.47
-35.67
-41.40
-47.32
-53.04
-58.26
-62.95
-67.39
-72.19
-78.04
-85.49
-94.55
-104.49
-113.80
-120.43
-122.35
-118.07
-107.26
-90.77
-70.52
-48.94
-28.39
-10.60
3.48
13.74
20.63
24.88
27.38
28.93
30.25
31.88
34.10
36.91
40.09
43.25
46.06
48.39
50.32
52.08
53.87
55.79
57.70
59.29
60.23
60.22
59.12
56.95
53.82
50.03
45.91
41.83
38.10
34.81
31.84
28.85
25.51
21.59
17.13
12.34
7.52
2.88
-1.56
-5.94
-10.52
-15.56
-21.19
-27.41
-34.13
-41.14
-48.29
-55.47
-62.76
-70.32
-78.42
-87.21
-96.70
-106.75
-117.11
-127.55
-138.02
-148.63
-159.68
-171.52
-184.46
-198.45
-212.94
-226.64
-237.60
-243.37
-241.45
-229.88
-207.81
-175.71
-135.43
-89.75
-41.81
5.46
49.63
88.98
122.40
149.23
169.24
182.58
189.80
191.86
189.98
185.42
179.31
172.47
165.47
158.64
152.25
146.42
141.15
136.26
131.30
125.79
119.24
111.45
102.48
92.66
82.42
72.19
62.26
52.67
43.33
34.02
24.55
14.88
5.12
-4.40
-13.28
-21.14
-27.87
-33.69
-39.23
-45.33
-52.74
-61.80
-72.05
-82.25
-90.49
-94.78
-93.55
-86.20
-73.26
-56.34
-37.64
-19.41
-3.47
9.11
18.10
24.01
27.72
30.24
32.35
34.50
36.71
38.76
40.42
41.61
42.45
43.17
43.97
44.93
46.00
47.08
48.08
48.99
49.73
50.19
50.11
49.21
47.20
44.00
39.66
34.42
28.60
22.59
16.77
11.44
6.72
2.54
-1.45
-5.61
-10.29
-15.57
-21.33
-27.21
-32.89
-38.26
-43.40
-48.68
-54.62
-61.78
-70.61
-81.14
-92.73
-103.89
-112.53
-116.33
-113.61
-103.87
-88.06
-68.31
-47.24
-27.23
-9.82
4.29
15.20
23.33
29.31
33.76
37.30
40.40
43.41
46.44
49.32
51.79
53.54
54.44
54.63
54.42
54.22
54.33
54.82
55.51
56.01
55.81
54.47
51.71
47.53
42.25
36.41
30.61
25.27
20.53
16.11
11.49
6.20
0.06
-6.68
-13.52
-19.98
-25.86
-31.41
-37.30
-44.31
-53.04
-63.62
-75.50
-87.40
-97.46
-103.61
-104.08
-97.96
-85.51
-68.22
-48.37
-28.45
-10.43
4.58
16.43
25.63
32.93
39.00
44.23
48.76
52.60
55.74
58.22
60.15
61.63
62.72
63.53
64.17
64.81
65.68
66.96
68.66
70.59
72.40
73.58
73.76
72.73
70.51
67.45
63.97
60.51
57.34
54.56
52.07
49.73
47.41
45.07
42.70
40.28
37.78
35.12
32.22
29.07
25.75
22.38
19.13
16.13
13.33
10.56
7.51
3.89
-0.43
-5.34
-10.45
-15.28
-19.52
-23.21
-26.76
-30.73
-35.57
-41.34
-47.72
-54.15
-60.12
-65.38
-70.04
-74.58
-79.64
-85.93
-94.00
-103.97
-115.30
-126.56
-135.58
-139.89
-137.47
-127.42
-110.37
-88.34
-64.17
-40.74
-20.25
-3.90
8.19
16.65
22.54
26.95
30.82
34.75
39.00
43.56
48.19
52.57
56.36
59.30
61.32
62.54
63.25
63.86
64.71
65.93
67.42
68.82
69.71
69.70
68.64
66.59
63.81
60.64
57.45
54.48
51.87
49.63
47.65
45.76
43.77
41.56
39.11
36.49
33.82
31.22
28.73
26.33
23.96
21.47
18.69
15.46
11.65
7.29
2.51
-2.35
-7.02
-11.29
-15.22
-19.07
-23.22
-27.93
-33.28
-39.12
-45.12
-50.93
-56.28
-61.16
-65.78
-70.63
-76.31
-83.36
-91.95
-101.64
-111.27
-118.97
-122.62
-120.36
-111.26
-95.65
-75.13
-52.24
-29.70
-9.78
6.19
17.86
25.67
30.38
32.90
34.02
34.44
34.76
35.44
36.73
38.65
40.97
43.37
45.59
47.57
49.42
51.33
53.38
55.47
57.24
58.32
58.40
57.41
55.52
52.99
50.10
47.05
43.97
40.91
37.95
35.13
32.47
29.87
27.28
24.63
21.94
19.27
16.61
13.85
10.80
7.26
3.16
-1.31
-5.84
-10.04
-13.71
-16.94
-20.01
-23.39
-27.48
-32.42
-38.12
-44.25
-50.37
-56.14
-61.38
-66.20
-70.96
-76.29
-82.84
-91.02
-100.64
-110.64
-119.13
-123.79
-122.50
-114.11
-98.93
-78.63
-55.83
-33.33
-13.36
2.77
14.73
22.95
28.26
31.60
33.81
35.58
37.38
39.42
41.73
44.15
46.47
48.51
50.23
51.72
53.17
54.83
56.83
59.12
61.48
63.52
64.80
65.06
64.19
62.33
59.75
56.75
53.58
50.40
47.25
44.15
41.09
38.02
34.93
31.80
28.61
25.37
22.15
19.00
16.06
13.40
11.02
8.86
6.72
4.44
1.84
-1.12
-4.42
-7.92
-11.43
-14.86
-18.22
-21.68
-25.55
-30.12
-35.54
-41.73
-48.34
-54.82
-60.66
-65.53
-69.48
-72.96
-76.70
-81.55
-88.09
-96.36
-105.60
-114.17
-119.82
-120.32
-114.16
-101.08
-82.31
-60.25
-37.72
-17.24
-0.41
12.25
21.07
26.83
30.40
32.54
33.84
34.84
35.91
37.31
39.12
41.19
43.28
45.16
46.76
48.19
49.71
51.58
53.87
56.41
58.81
60.58
61.31
60.81
59.21
56.83
54.02
51.09
48.19
45.33
42.41
39.33
36.00
32.35
28.45
24.46
20.67
17.38
14.79
12.80
11.08
9.11
6.48
3.09
-0.84
-4.86
-8.59
-11.83
-14.72
-17.58
-20.81
-24.69
-29.27
-34.45
-39.96
-45.46
-50.63
-55.22
-59.26
-63.10
-67.36
-72.75
-79.72
-88.12
-96.94
-104.44
-108.48
-107.19
-99.54
-85.81
-67.49
-46.92
-26.61
-8.60
5.94
16.69
23.96
28.31
30.28
30.32
28.84
26.37
23.54
20.96
19.06
17.96
17.49
17.37
17.37
17.46
17.74
18.31
19.06
19.57
19.18
17.24
13.32
7.45
0.06
-8.19
-16.56
-24.56
-32.06
-39.20
-46.34
-53.80
-61.68
-69.79
-77.60
-84.28
-88.80
-90.13
-87.51
-80.74
-70.35
-57.50
-43.67
-30.03
-16.98
-4.02
10.00
26.25
45.21
66.23
87.59
106.95
122.02
131.15
133.64
129.66
120.07
106.05
88.83
69.57
49.27
28.84
8.99
-9.64
-26.51
-41.02
-52.36
-59.52
-61.41
-57.09
-46.22
-29.23
-7.45
17.10
42.06
65.18
84.61
99.09
107.96
111.15
109.08
102.52
92.49
79.94
65.74
50.54
34.82
18.95
3.25
-12.06
-26.88
-41.31
-55.56
-69.80
-83.91
-97.37
-109.22
-118.29
-123.49
-124.16
-120.41
-113.04
-103.39
-92.92
-82.68
-73.00
-63.32
-52.54
-39.41
-23.01
-3.11
19.77
44.53
69.77
94.10
116.23
135.04
149.60
159.16
163.36
162.27
156.51
147.18
135.63
123.14
110.76
99.06
88.22
78.11
68.53
59.29
50.42
42.00
34.10
26.62
19.22
11.35
2.44
-7.84
-19.44
-31.86
-44.21
-55.46
-64.54
-70.63
-73.29
-72.56
-69.05
-63.86
-58.27
-53.48
-50.29
-49.00
-49.55
-51.81
-55.69
-61.26
-68.54
-77.30
-86.97
-96.75
-105.83
-113.62
-119.92
-124.80
-128.44
-131.03
-132.69
-133.55
-133.79
-133.72
-133.75
-134.31
-135.82
-138.54
-142.47
-147.17
-151.63
-154.27
-153.04
-145.90
-131.25
-108.45
-78.10
-42.09
-3.20
35.38
70.79
100.94
124.69
141.68
152.12
156.36
154.77
147.71
135.59
118.92
98.37
74.62
48.41
20.59
-7.75
-35.25
-60.40
-81.92
-99.15
-112.23
-122.01
-129.53
-135.39
-139.36
-140.29
-136.64
-127.10
-111.32
-90.15
-65.56
-39.99
-15.66
6.01
24.57
40.33
53.72
64.86
73.27
78.10
78.57
74.48
66.47
56.01
44.95
35.18
28.21
24.95
25.52
29.36
35.28
41.76
47.25
50.56
51.00
48.42
43.00
35.09
25.01
13.09
-0.24
-14.35
-28.43
-41.64
-53.24
-62.93
-70.88
-77.72
-84.41
-92.03
-101.49
-113.25
-127.11
-141.86
-155.33
-164.58
-166.64
-159.33
-142.00
-115.77
-83.13
-47.01
-9.67
28.00
66.47
106.77
149.32
192.83
234.14
268.92
293.08
304.27
302.58
290.34
270.97
247.55
222.10
195.37
167.61
139.30
111.57
85.98
63.82
45.55
30.53
17.49
4.92
-8.45
-23.61
-41.35
-62.03
-85.13
-108.56
-128.52
-140.08
-138.57
-121.20
-88.24
-42.93
9.50
63.38
114.02
158.18
194.05
220.72
237.96
246.18
246.49
240.70
230.91
219.06
206.46
193.61
180.36
166.28
151.12
135.08
118.88
103.46
89.68
77.97
68.19
59.71
51.74
43.66
35.27
26.74
18.44
10.64
3.39
-3.54
-10.39
-17.27
-23.99
-30.11
-35.04
-38.26
-39.43
-38.50
-35.71
-31.57
-26.74
-21.95
-17.80
-14.77
-13.18
-13.18
-14.81
-17.95
-22.29
-27.35
-32.56
-37.48
-41.96
-46.23
-50.80
-56.22
-62.84
-70.63
-79.23
-88.15
-97.04
-105.86
-114.93
-124.78
-135.93
-148.68
-162.96
-178.18
-193.19
-206.32
-215.65
-219.45
-216.74
-207.76
-194.07
-178.18
-162.84
-150.18
-141.26
-135.92
-133.23
-131.95
-130.91
-129.16
-125.80
-119.88
-110.47
-96.93
-79.24
-58.14
-35.03
-11.62
10.48
30.08
46.49
59.45
69.08
75.90
80.83
85.13
90.18
96.92
105.52
115.08
123.86
129.70
130.60
125.26
113.52
96.53
76.80
57.87
43.63
37.36
40.81
53.66
73.66
97.38
121.26
142.58
159.83
172.62
181.13
185.62
186.09
182.39
174.46
162.63
147.61
130.45
111.99
92.79
72.86
52.03
30.18
7.53
-15.31
-37.52
-58.24
-76.75
-92.44
-104.65
-112.58
-115.28
-111.88
-101.89
-85.44
-63.46
-37.62
-10.03
17.11
41.95
63.30
80.78
94.70
105.74
114.58
121.55
126.60
129.30
129.16
125.83
119.30
109.93
98.28
85.02
70.77
56.07
41.37
26.97
13.06
-0.31
-13.19
-25.58
-37.32
-48.01
-57.14
-64.17
-68.82
-71.21
-71.80
-71.19
-69.84
-67.76
-64.44
-59.02
-50.60
-38.68
-23.43
-5.64
13.53
32.80
51.09
67.51
81.28
91.67
98.08
100.24
98.31
93.02
85.37
76.43
67.00
57.50
47.99
38.37
28.55
18.58
8.72
-0.62
-8.91
-15.59
-20.21
-22.53
-22.60
-20.81
-17.75
-14.08
-10.43
-7.26
-4.82
-3.22
-2.42
-2.39
-3.09
-4.46
-6.43
-8.86
-11.52
-14.15
-16.49
-18.39
-19.83
-20.92
-21.88
-22.85
-23.93
-25.07
-26.25
-27.48
-28.93
-30.81
-33.36
-36.66
-40.57
-44.70
-48.51
-51.39
-52.88
-52.78
-51.28
-48.95
-46.65
-45.30
-45.63
-48.01
-52.35
-58.24
-65.11
-72.40
-79.62
-86.43
-92.55
-97.73
-101.86
-105.03
-107.61
-110.14
-113.23
-117.32
-122.63
-129.22
-137.16
-146.54
-157.22
-168.42
-178.30
-184.09
-182.65
-171.58
-150.15
-119.83
-83.78
-45.98
-10.02
21.79
48.55
70.47
88.25
102.57
113.84
122.30
128.17
131.70
133.22
132.94
130.87
126.81
120.46
111.67
100.52
87.39
72.75
56.94
39.98
21.72
1.96
-19.09
-40.53
-60.56
-76.62
-85.96
-86.31
-76.79
-58.24
-33.21
-5.22
22.20
46.29
65.50
79.30
87.83
91.45
90.67
86.16
78.92
70.17
61.14
52.72
45.28
38.79
33.00
27.68
22.75
18.18
13.88
9.66
5.26
0.47
-4.68
-9.94
-14.86
-18.89
-21.56
-22.50
-21.59
-18.93
-14.94
-10.25
-5.59
-1.61
1.37
3.38
4.79
6.02
7.42
9.06
10.82
12.42
13.66
14.33
14.42
13.90
12.85
11.34
9.48
7.44
5.40
3.52
1.87
0.46
-0.87
-2.32
-4.15
-6.62
-9.92
-14.14
-19.14
-24.54
-29.69
-33.75
-35.95
-35.73
-33.00
-28.15
-21.92
-15.10
-8.45
-2.42
2.69
6.76
9.69
11.40
11.86
11.12
9.39
6.97
4.24
1.52
-1.00
-3.30
-5.48
-7.71
-10.22
-13.19
-16.78
-21.16
-26.51
-32.94
-40.41
-48.56
-56.67
-63.79
-68.95
-71.46
-71.04
-67.93
-62.72
-56.22
-49.15
-42.10
-35.51
-29.68
-24.95
-21.70
-20.24
-20.71
-22.94
-26.33
-30.04
-33.06
-34.56
-34.07
-31.58
-27.47
-22.41
-17.13
-12.31
-8.42
-5.69
-4.05
-3.16
-2.54
-1.64
-0.07
2.31
5.27
8.35
10.97
12.67
13.20
12.58
11.00
8.73
6.01
3.02
-0.09
-3.15
-5.93
-8.14
-9.43
-9.42
-7.75
-4.13
1.46
8.68
16.84
24.80
31.33
35.35
36.21
33.86
28.76
21.70
13.52
4.90
-3.74
-12.10
-19.89
-26.68
-31.86
-34.83
-35.16
-32.82
-28.15
-21.80
-14.66
-7.63
-1.66
2.31
3.52
1.53
-3.49
-10.56
-18.04
-23.99
-26.76
-25.47
-20.24
-11.99
-2.01
8.47
18.59
27.86
35.94
42.49
47.10
49.38
49.15
46.73
42.85
38.58
34.99
32.80
32.27
33.21
35.12
37.50
39.98
42.41
44.71
46.77
48.32
48.98
48.35
46.17
42.48
37.54
31.87
25.99
20.43
15.51
11.35
7.89
4.91
2.14
-0.70
-3.83
-7.39
-11.41
-15.77
-20.20
-24.25
-27.38
-29.11
-29.08
-27.27
-23.88
-19.39
-14.35
-9.30
-4.67
-0.77
2.26
4.29
5.27
5.07
3.55
0.62
-3.69
-9.15
-15.36
-21.80
-27.95
-33.47
-38.23
-42.42
-46.43
-50.86
-56.36
-63.41
-72.16
-82.24
-92.81
-102.79
-111.17
-117.36
-121.30
-123.32
-123.93
-123.59
-122.57
-121.08
-119.41
-118.12
-117.93
-119.72
-124.14
-131.44
-141.25
-152.50
-163.49
-172.06
-176.17
-174.37
-166.25
-152.81
-136.19
-119.20
-104.37
-93.17
-85.45
-79.46
-72.52
-61.95
-46.08
-24.82
0.43
27.36
53.51
76.94
96.39
111.26
121.42
127.18
129.44
129.71
130.03
132.45
138.35
147.93
160.15
173.14
184.86
193.87
199.64
202.42
202.86
201.56
198.70
193.95
186.65
176.07
161.69
143.46
121.90
98.21
74.24
52.22
34.39
22.39
16.79
16.91
21.06
27.19
33.55
39.10
43.60
47.22
50.18
52.43
53.57
53.01
50.09
44.24
35.07
22.68
7.90
-7.47
-20.84
-29.40
-31.06
-25.25
-13.23
2.39
18.53
32.69
43.50
50.75
54.97
56.87
57.09
56.13
54.48
52.69
51.31
50.60
50.57
50.88
51.02
50.47
48.90
46.25
42.68
38.55
34.20
29.89
25.62
21.19
16.32
10.81
4.74
-1.51
-7.39
-12.40
-16.26
-19.01
-20.92
-22.40
-23.86
-25.63
-27.84
-30.47
-33.19
-35.49
-36.73
-36.44
-34.40
-30.83
-26.27
-21.40
-16.87
-13.12
-10.48
-9.17
-9.38
-11.23
-14.69
-19.49
-25.15
-31.09
-36.76
-41.85
-46.30
-50.30
-54.14
-58.13
-62.53
-67.56
-73.40
-80.21
-88.02
-96.70
-105.92
-115.18
-123.86
-131.25
-136.64
-139.48
-139.45
-136.68
-131.71
-125.26
-117.93
-109.92
-100.94
-90.39
-77.74
-62.91
-46.39
-29.19
-12.43
2.91
16.25
27.44
36.66
44.21
50.38
55.27
58.85
60.97
61.33
59.46
54.64
46.17
33.63
17.65
0.19
-15.48
-25.58
-27.05
-18.58
-1.19
22.32
48.32
73.53
95.79
114.11
128.34
138.62
145.10
147.90
147.28
143.70
137.77
130.13
121.29
111.63
101.37
90.72
79.89
69.12
58.63
48.62
39.23
30.43
21.95
13.29
3.85
-6.78
-18.42
-30.11
-40.35
-47.46
-50.24
-48.44
-42.67
-34.21
-24.61
-15.30
-7.53
-2.39
-0.72
-2.90
-8.52
-16.12
-23.33
-27.46
-26.26
-18.65
-5.13
12.46
31.49
49.34
64.00
74.33
80.05
81.49
79.17
73.76
65.97
56.61
46.52
36.62
27.81
20.83
16.21
14.15
14.52
16.83
20.33
24.20
27.74
30.46
32.12
32.63
31.92
29.94
26.64
22.20
16.99
11.57
6.51
2.23
-1.15
-3.81
-6.14
-8.59
-11.52
-15.12
-19.34
-23.93
-28.51
-32.66
-36.07
-38.58
-40.12
-40.65
-40.07
-38.20
-34.88
-30.11
-24.13
-17.44
-10.64
-4.33
1.07
5.32
8.41
10.44
11.56
11.96
11.78
11.13
10.10
8.85
7.51
6.24
5.13
4.15
3.16
1.93
0.23
-2.09
-5.07
-8.65
-12.61
-16.63
-20.31
-23.19
-24.85
-25.00
-23.51
-20.48
-16.19
-11.04
-5.57
-0.32
4.16
7.44
9.29
9.74
8.99
7.41
5.36
3.07
0.60
-2.04
-4.90
-7.94
-11.09
-14.25
-17.32
-20.25
-23.06
-25.86
-28.76
-31.89
-35.39
-39.28
-43.51
-47.76
-51.55
-54.29
-55.31
-54.06
-50.24
-43.94
-35.68
-26.35
-17.01
-8.69
-2.07
2.57
5.33
6.54
6.53
5.56
3.76
1.27
-1.73
-4.94
-8.08
-10.98
-13.63
-16.14
-18.75
-21.74
-25.40
-30.01
-35.77
-42.68
-50.53
-58.72
-66.41
-72.65
-76.72
-78.40
-78.06
-76.55
-74.87
-73.84
-73.86
-74.91
-76.74
-79.15
-82.18
-86.09
-91.17
-97.55
-105.00
-112.92
-120.40
-126.30
-129.41
-128.67
-123.36
-113.40
-99.51
-83.16
-66.36
-51.08
-38.70
-29.54
-22.89
-17.16
-10.48
-1.28
11.28
27.11
45.22
63.97
81.37
95.46
104.59
107.76
104.83
96.58
84.59
70.85
57.29
45.31
35.47
27.56
20.78
14.27
7.54
0.71
-5.33
-9.33
-10.05
-6.70
0.67
11.11
23.02
34.59
44.28
51.26
55.53
57.90
59.52
61.47
64.30
68.03
72.27
76.50
80.43
83.98
87.15
89.88
91.83
92.53
91.57
88.88
84.76
79.90
74.99
70.52
66.67
63.28
60.07
56.90
53.75
50.75
48.03
45.55
43.04
40.02
35.89
30.20
22.67
13.42
3.08
-7.25
-16.09
-21.89
-23.47
-20.31
-12.78
-2.00
10.49
23.08
34.43
43.61
50.02
53.42
53.82
51.51
47.09
41.35
35.15
29.19
23.82
19.05
14.63
10.26
5.75
1.10
-3.61
-8.27
-12.90
-17.72
-23.06
-29.28
-36.64
-44.98
-53.63
-61.34
-66.53
-67.66
-63.80
-54.92
-42.02
-26.82
-11.30
2.84
14.43
22.90
28.19
30.49
30.25
28.03
24.54
20.46
16.38
12.57
9.03
5.52
1.68
-2.71
-7.69
-13.14
-18.81
-24.49
-30.11
-35.83
-42.04
-49.23
-57.70
-67.28
-76.98
-85.15
-89.73
-88.99
-82.21
-69.93
-53.92
-36.47
-19.71
-5.11
6.71
15.71
21.99
25.67
26.80
25.58
22.48
18.21
13.55
9.10
5.18
1.82
-1.04
-3.49
-5.53
-7.21
-8.61
-9.99
-11.73
-14.26
-18.03
-23.33
-30.14
-37.98
-45.77
-51.97
-54.95
-53.45
-47.00
-36.19
-22.41
-7.43
7.11
20.09
30.94
39.47
45.62
49.37
50.78
50.11
47.89
44.77
41.33
37.86
34.26
30.28
25.68
20.53
15.21
10.23
5.93
2.31
-1.04
-4.82
-9.74
-16.24
-24.32
-33.34
-42.05
-48.69
-51.40
-48.63
-39.75
-25.33
-7.05
12.75
31.71
47.99
60.55
69.05
73.59
74.51
72.26
67.45
60.94
53.82
47.12
41.63
37.58
34.68
32.26
29.46
25.66
20.59
14.38
7.46
0.30
-6.90
-14.22
-22.00
-30.61
-40.15
-50.26
-60.10
-68.44
-74.00
-75.68
-72.89
-65.62
-54.51
-40.68
-25.56
-10.56
3.05
14.35
22.77
28.08
30.37
30.00
27.64
24.01
19.81
15.51
11.20
6.71
1.76
-3.76
-9.72
-15.75
-21.44
-26.55
-31.05
-35.22
-39.51
-44.40
-50.29
-57.18
-64.57
-71.24
-75.44
-75.32
-69.56
-57.91
-41.37
-21.90
-1.82
16.95
33.20
46.59
57.31
65.70
72.09
76.74
79.87
81.73
82.63
82.78
82.22
80.89
78.63
75.38
71.23
66.41
61.25
56.03
50.90
45.89
40.87
35.60
29.79
23.23
15.85
7.94
0.09
-6.85
-12.07
-15.04
-15.69
-14.35
-11.57
-7.87
-3.61
1.08
6.05
11.06
15.70
19.42
21.77
22.52
21.76
19.86
17.23
14.27
11.25
8.25
5.34
2.49
-0.27
-2.93
-5.59
-8.45
-11.83
-16.05
-21.35
-27.85
-35.46
-43.96
-52.94
-61.90
-70.26
-77.42
-82.87
-86.27
-87.53
-86.81
-84.41
-80.70
-76.08
-70.90
-65.57
-60.58
-56.42
-53.53
-52.04
-51.80
-52.29
-52.91
-53.16
-52.88
-52.31
-52.00
-52.57
-54.35
-57.34
-61.12
-65.10
-68.76
-71.96
-75.07
-78.98
-84.84
-93.62
-105.67
-120.27
-135.52
-148.46
-155.66
-154.08
-141.95
-119.30
-88.05
-51.45
-13.16
23.53
56.31
83.99
106.31
123.63
136.68
146.26
153.21
158.24
161.78
163.99
164.72
163.77
161.02
156.56
150.71
143.94
136.79
129.75
123.15
117.17
111.75
106.68
101.60
96.14
90.03
83.12
75.57
67.66
59.85
52.53
46.11
40.79
36.67
33.72
31.76
30.54
29.75
29.09
28.37
27.52
26.48
25.23
23.64
21.53
18.74
15.33
11.53
7.70
4.16
1.02
-1.87
-4.77
-7.93
-11.40
-15.07
-18.74
-22.27
-25.68
-29.14
-32.82
-36.79
-40.97
-45.10
-48.95
-52.34
-55.16
-57.33
-58.71
-59.07
-58.23
-56.17
-53.09
-49.43
-45.67
-42.04
-38.54
-34.92
-30.93
-26.57
-22.20
-18.40
-15.65
-14.19
-13.83
-14.18
-14.82
-15.56
-16.42
-17.55
-19.01
-20.67
-22.25
-23.49
-24.36
-25.11
-26.15
-27.91
-30.61
-34.17
-38.16
-41.99
-44.99
-46.61
-46.53
-44.75
-41.54
-37.40
-32.91
-28.55
-24.68
-21.48
-19.06
-17.51
-16.94
-17.40
-18.78
-20.76
-22.79
-24.30
-24.86
-24.37
-23.04
-21.34
-19.68
-18.27
-17.02
-15.67
-13.96
-11.86
-9.68
-7.99
-7.45
-8.62
-11.79
-16.92
-23.62
-31.04
-37.94
-42.73
-43.81
-39.92
-30.60
-16.45
1.07
20.06
38.67
55.56
69.92
81.28
89.33
93.78
94.48
91.74
86.39
79.80
73.44
68.52
65.62
64.58
64.70
65.17
65.36
65.11
64.73
64.68
65.30
66.42
67.33
66.96
64.21
58.38
49.51
38.44
26.69
16.20
8.81
5.79
7.43
12.94
20.63
28.40
34.41
37.56
37.63
35.12
30.81
25.32
18.96
11.75
3.73
-4.91
-13.76
-22.34
-30.30
-37.53
-44.17
-50.48
-56.69
-62.91
-69.18
-75.43
-81.54
-87.41
-92.97
-98.21
-103.27
-108.44
-114.10
-120.45
-127.33
-134.03
-139.41
-142.22
-141.45
-136.57
-127.66
-115.21
-99.94
-82.70
-64.44
-46.17
-28.96
-13.78
-1.36
7.94
14.15
17.60
18.87
18.67
17.88
17.36
17.78
19.41
22.08
25.21
28.03
29.91
30.54
29.92
28.22
25.63
22.25
18.00
12.69
6.10
-1.98
-11.62
-22.69
-34.63
-46.35
-56.19
-62.30
-63.05
-57.65
-46.41
-30.72
-12.59
5.93
23.27
38.46
51.01
60.73
67.42
71.01
71.57
69.51
65.59
60.77
55.97
51.80
48.45
45.70
43.08
40.15
36.65
32.56
28.03
23.08
17.59
11.13
3.17
-6.78
-19.03
-33.57
-50.00
-67.39
-84.42
-99.34
-110.36
-116.03
-115.61
-109.30
-98.16
-83.81
-68.00
-52.28
-37.91
-25.89
-16.92
-11.42
-9.30
-9.92
-12.26
-15.07
-17.34
-18.52
-18.62
-18.05
-17.44
-17.34
-18.29
-20.71
-24.99
-31.57
-40.78
-52.79
-67.49
-84.44
-102.78
-121.19
-137.90
-150.79
-157.74
-157.17
-148.52
-132.53
-111.11
-86.51
-60.61
-34.29
-7.44
20.38
49.14
77.78
104.33
126.61
143.25
154.29
161.06
165.50
169.13
172.44
174.84
175.20
172.72
167.36
159.89
151.42
142.81
134.15
124.70
113.22
98.34
79.15
55.49
28.33
-0.09
-26.35
-46.32
-56.02
-52.68
-35.67
-6.77
30.16
70.29
109.05
143.04
170.38
190.46
203.36
209.36
208.82
202.21
190.35
174.52
156.21
136.90
117.76
99.49
82.48
66.94
53.11
41.24
31.45
23.58
17.08
11.12
4.73
-2.86
-12.15
-23.20
-35.79
-49.59
-64.25
-79.36
-94.31
-108.08
-119.20
-125.95
-126.75
-120.58
-107.30
-87.57
-62.76
-34.67
-5.34
23.06
48.40
68.92
83.52
92.01
95.08
93.94
89.93
84.15
77.34
69.91
62.12
54.18
46.25
38.48
30.96
23.75
16.95
10.62
4.76
-0.81
-6.45
-12.63
-19.78
-28.03
-37.09
-46.15
-53.93
-58.88
-59.59
-55.14
-45.53
-31.70
-15.46
1.03
15.74
27.13
34.46
37.56
36.73
32.46
25.43
16.48
6.73
-2.58
-10.39
-16.10
-19.83
-22.27
-24.33
-26.67
-29.43
-32.26
-34.66
-36.40
-37.78
-39.51
-42.43
-47.15
-53.79
-61.95
-70.79
-79.20
-85.93
-89.78
-89.81
-85.55
-77.17
-65.50
-51.84
-37.63
-24.15
-12.39
-2.99
3.65
7.37
8.28
6.78
3.60
-0.39
-4.38
-7.87
-10.79
-13.39
-16.07
-19.13
-22.52
-25.92
-28.82
-30.85
-31.97
-32.62
-33.66
-36.14
-40.90
-48.29
-57.92
-68.53
-78.28
-85.08
-87.15
-83.50
-74.22
-60.42
-43.93
-26.81
-10.91
2.43
12.44
18.83
21.69
21.40
18.72
14.69
10.55
7.49
6.33
7.30
9.95
13.32
16.34
18.18
18.55
17.68
16.10
14.21
12.03
9.12
4.76
-1.80
-10.89
-22.23
-34.78
-46.85
-56.34
-61.23
-60.11
-52.56
-39.42
-22.52
-4.15
13.58
29.16
41.85
51.44
57.92
61.30
61.60
59.02
54.15
47.98
41.66
36.13
31.89
28.82
26.37
23.88
20.90
17.37
13.47
9.42
5.22
0.54
-5.23
-12.70
-22.31
-34.08
-47.40
-61.02
-73.14
-81.71
-84.89
-81.59
-71.83
-56.82
-38.55
-19.25
-0.82
15.46
28.88
39.10
45.96
49.35
49.44
46.71
42.02
36.42
30.84
25.80
21.39
17.31
13.13
8.59
3.70
-1.25
-5.87
-9.92
-13.46
-16.90
-20.97
-26.44
-33.93
-43.54
-54.63
-65.79
-74.91
-79.77
-78.58
-70.57
-56.34
-37.64
-16.85
3.70
22.24
37.73
49.66
57.80
61.97
62.14
58.66
52.33
44.40
36.24
28.91
22.89
18.01
13.71
9.36
4.64
-0.37
-5.25
-9.53
-12.94
-15.66
-18.25
-21.51
-26.25
-33.01
-41.89
-52.40
-63.38
-73.12
-79.61
-81.01
-76.16
-64.96
-48.50
-28.73
-7.90
12.00
29.58
44.06
55.00
62.07
65.00
63.78
58.86
51.24
42.32
33.49
25.73
19.33
14.06
9.36
4.79
0.18
-4.41
-8.87
-13.22
-17.76
-22.92
-29.19
-36.96
-46.39
-57.31
-69.08
-80.50
-89.81
-95.01
-94.37
-86.98
-73.11
-54.21
-32.47
-10.20
10.75
29.25
44.75
56.97
65.63
70.43
71.25
68.43
62.93
56.14
49.50
43.92
39.61
36.00
32.19
27.40
21.36
14.37
7.12
0.28
-5.86
-11.52
-17.44
-24.60
-33.87
-45.71
-59.77
-74.80
-88.67
-98.75
-102.61
-98.69
-86.84
-68.29
-45.29
-20.44
4.04
26.61
46.47
63.23
76.60
86.31
92.15
94.18
92.90
89.21
84.25
79.12
74.50
70.55
66.95
63.14
58.58
53.13
46.94
40.35
33.65
26.79
19.35
10.67
0.07
-12.83
-27.92
-44.52
-61.35
-76.59
-88.17
-94.08
-92.85
-84.03
-68.39
-47.73
-24.51
-1.13
20.55
39.42
55.05
67.33
76.21
81.60
83.48
82.06
77.92
71.97
65.24
58.66
52.84
48.00
44.04
40.59
37.21
33.46
29.01
23.68
17.45
10.40
2.66
-5.67
-14.54
-24.02
-34.23
-45.37
-57.61
-70.76
-84.12
-96.28
-105.24
-108.86
-105.49
-94.54
-76.73
-53.94
-28.70
-3.48
19.83
40.10
56.92
70.22
80.07
86.47
89.50
89.34
86.49
81.72
75.93
70.00
64.55
59.84
55.82
52.24
48.70
44.85
40.35
35.03
28.79
21.68
13.83
5.34
-3.67
-13.22
-23.45
-34.55
-46.70
-59.73
-72.89
-84.78
-93.40
-96.65
-92.99
-81.94
-64.37
-42.30
-18.37
4.93
25.71
42.98
56.48
66.41
73.11
76.86
77.91
76.57
73.29
68.72
63.59
58.58
54.11
50.24
46.80
43.37
39.47
34.72
28.93
22.09
14.35
5.94
-2.88
-11.93
-21.07
-30.25
-39.54
-49.17
-59.53
-70.87
-83.06
-95.25
-105.75
-112.36
-112.98
-106.34
-92.48
-72.80
-49.62
-25.50
-2.63
17.51
34.18
47.17
56.57
62.60
65.59
65.99
64.32
61.19
57.24
53.00
48.96
45.40
42.40
39.85
37.44
34.79
31.50
27.21
21.71
14.98
7.19
-1.30
-10.05
-18.69
-27.00
-35.10
-43.40
-52.48
-62.83
-74.45
-86.61
-97.76
-105.71
-108.20
-103.57
-91.37
-72.55
-49.28
-24.34
-0.26
21.16
39.07
53.43
64.54
72.71
78.10
80.80
81.00
79.10
75.71
71.47
66.94
62.47
58.29
54.44
50.97
47.76
44.63
41.25
37.20
32.13
25.81
18.22
9.63
0.41
-8.99
-18.20
-27.10
-35.94
-45.28
-55.78
-67.80
-80.97
-93.91
-104.40
-109.93
-108.49
-99.28
-83.02
-61.72
-38.06
-14.58
6.85
25.22
40.25
52.05
60.83
66.79
70.10
70.98
69.80
67.03
63.20
58.84
54.41
50.27
46.71
43.86
41.63
39.71
37.54
34.56
30.29
24.54
17.45
9.41
0.93
-7.53
-15.67
-23.49
-31.23
-39.43
-48.65
-59.25
-70.93
-82.60
-92.31
-97.77
-96.99
-88.96
-74.12
-54.16
-31.56
-8.85
11.94
29.58
43.56
53.84
60.66
64.40
65.52
64.59
62.24
59.10
55.69
52.33
49.17
46.20
43.38
40.68
38.09
35.61
33.12
30.36
26.89
22.29
16.26
8.83
0.34
-8.65
-17.50
-25.73
-33.20
-40.19
-47.32
-55.40
-65.01
-76.16
-87.91
-98.50
-105.69
-107.38
-102.40
-90.81
-73.94
-53.91
-33.06
-13.40
3.61
17.14
26.84
32.72
35.06
34.39
31.41
26.92
21.68
16.28
11.15
6.46
2.20
-1.72
-5.44
-9.04
-12.62
-16.36
-20.60
-25.80
-32.52
-41.14
-51.74
-63.98
-77.21
-90.68
-103.82
-116.43
-128.79
-141.60
-155.67
-171.51
-188.95
-206.78
-222.74
-234.10
-238.44
-234.57
-223.07
-206.25
-187.35
-169.61
-155.28
-145.30
-139.31
-136.28
-134.97
-134.26
-133.04
-130.09
-124.04
-113.55
-97.65
-75.91
-48.51
-16.12
20.28
59.51
100.11
140.26
177.85
210.77
237.29
256.52
268.50
274.09
274.62
271.42
265.55
257.65
247.87
236.02
221.69
204.51
184.50
162.22
138.98
116.65
97.23
82.27
72.45
67.48
66.51
68.68
73.46
80.78
90.69
102.97
116.89
131.19
144.48
155.57
163.72
168.66
170.40
169.15
165.10
158.54
149.80
139.28
127.37
114.49
100.98
87.19
73.37
59.70
46.37
33.52
21.36
10.09
-0.18
-9.52
-18.24
-26.89
-36.11
-46.32
-57.52
-69.15
-80.01
-88.53
-93.09
-92.52
-86.46
-75.49
-60.98
-44.75
-28.57
-13.88
-1.63
7.63
13.69
16.51
16.30
13.48
8.70
2.76
-3.52
-9.47
-14.64
-18.93
-22.51
-25.76
-29.10
-32.82
-37.05
-41.71
-46.56
-51.37
-55.97
-60.33
-64.52
-68.74
-73.21
-78.28
-84.37
-91.90
-101.10
-111.67
-122.52
-131.74
-137.06
-136.44
-128.77
-114.32
-94.71
-72.31
-49.64
-28.69
-10.73
3.69
14.40
21.38
24.77
24.87
22.31
18.00
13.04
8.45
4.93
2.68
1.45
0.63
-0.44
-2.26
-5.02
-8.59
-12.62
-16.80
-20.94
-25.07
-29.39
-34.20
-39.79
-46.44
-54.31
-63.29
-72.87
-81.87
-88.51
-90.73
-86.85
-76.12
-59.16
-37.76
-14.39
8.52
29.14
46.43
60.02
69.90
76.17
79.00
78.72
75.89
71.33
66.00
60.82
56.46
53.18
50.85
48.95
46.88
44.11
40.39
35.74
30.39
24.60
18.54
12.25
5.62
-1.59
-9.74
-19.21
-30.29
-42.86
-56.14
-68.58
-78.05
-82.37
-79.96
-70.47
-54.87
-35.23
-14.11
6.16
23.95
38.46
49.51
57.22
61.77
63.32
62.18
58.93
54.44
49.72
45.61
42.47
40.15
38.08
35.61
32.29
28.01
22.97
17.49
11.83
6.00
-0.24
-7.31
-15.65
-25.61
-37.31
-50.58
-64.82
-78.89
-91.12
-99.53
-102.29
-98.24
-87.33
-70.71
-50.43
-28.87
-8.16
10.24
25.51
37.28
45.39
49.78
50.57
48.20
43.51
37.66
31.90
27.24
24.13
22.41
21.42
20.32
18.40
15.42
11.54
7.21
2.80
-1.60
-6.35
-12.15
-19.77
-29.77
-42.22
-56.41
-70.85
-83.37
-91.62
-93.66
-88.54
-76.62
-59.49
-39.44
-18.77
0.76
18.09
32.76
44.50
53.03
58.10
59.60
57.88
53.78
48.44
43.00
38.22
34.30
30.92
27.52
23.53
18.71
13.09
7.01
0.79
-5.40
-11.67
-18.34
-25.95
-35.09
-46.23
-59.57
-74.70
-90.47
-104.95
-115.69
-120.32
-117.29
-106.37
-88.73
-66.58
-42.44
-18.54
3.60
23.16
39.79
53.24
63.20
69.42
71.84
70.90
67.49
62.79
57.92
53.62
50.03
46.82
43.37
39.09
33.74
27.42
20.50
13.36
6.18
-1.11
-8.93
-17.81
-28.33
-40.87
-55.39
-71.17
-86.79
-100.10
-108.73
-110.59
-104.57
-90.86
-70.94
-47.08
-21.77
2.95
25.68
45.69
62.56
75.99
85.65
91.33
93.07
91.38
87.13
81.47
75.51
70.10
65.61
61.89
58.46
54.62
49.78
43.56
35.94
27.18
17.63
7.64
-2.67
-13.34
-24.60
-36.77
-50.26
-65.26
-81.49
-97.96
-112.89
-123.85
-128.39
-124.73
-112.36
-92.31
-66.78
-38.60
-10.40
15.88
39.17
59.16
75.86
89.31
99.41
105.95
108.80
108.14
104.51
98.76
91.90
84.83
78.18
72.19
66.77
61.52
55.93
49.49
41.85
32.92
22.89
12.12
1.03
-10.10
-21.23
-32.60
-44.66
-57.88
-72.38
-87.67
-102.37
-114.36
-121.18
-120.76
-112.05
-95.46
-72.66
-46.16
-18.50
8.26
32.79
54.36
72.54
87.02
97.49
103.83
106.21
105.27
101.99
97.42
92.42
87.40
82.38
77.20
71.75
66.15
60.71
55.64
50.85
45.81
39.75
31.96
22.12
10.52
-2.12
-14.91
-27.05
-38.08
-48.03
-57.25
-66.47
-76.54
-88.21
-101.78
-116.72
-131.43
-143.42
-149.86
-148.41
-137.97
-119.08
-93.76
-64.72
-34.69
-5.75
20.89
44.68
65.40
82.79
96.50
106.24
111.93
113.94
112.99
110.06
106.12
101.92
97.96
94.42
91.23
88.17
84.96
81.24
76.76
71.36
64.99
57.75
49.67
40.79
31.08
20.56
9.37
-2.16
-13.59
-24.58
-34.87
-44.48
-53.60
-62.46
-71.39
-80.82
-91.22
-102.99
-116.13
-129.77
-142.03
-150.25
-151.73
-144.67
-128.87
-105.79
-78.10
-48.74
-20.10
6.33
29.91
50.42
67.72
81.63
91.96
98.70
102.14
102.82
101.43
98.66
95.12
91.31
87.58
84.23
81.40
79.12
77.23
75.35
72.96
69.53
64.65
58.23
50.48
41.90
32.93
23.88
14.77
5.41
-4.41
-14.76
-25.40
-35.85
-45.59
-54.26
-61.85
-68.80
-75.91
-84.07
-94.03
-105.93
-119.04
-131.61
-141.20
-145.18
-141.53
-129.56
-110.10
-85.37
-58.18
-31.18
-6.18
16.00
35.27
51.85
65.83
77.07
85.30
90.44
92.74
92.84
91.56
89.66
87.65
85.70
83.83
81.97
80.13
78.38
76.72
74.99
72.76
69.50
64.74
58.29
50.41
41.73
33.00
24.87
17.53
10.72
3.87
-3.57
-11.87
-20.86
-29.98
-38.60
-46.31
-53.07
-59.28
-65.59
-72.78
-81.50
-92.02
-103.98
-116.17
-126.56
-132.63
-132.05
-123.51
-107.25
-85.11
-59.96
-34.83
-11.99
7.38
23.16
35.67
45.26
51.96
55.74
56.71
55.49
53.05
50.52
48.72
47.93
47.90
48.09
47.94
47.13
45.59
43.43
40.77
37.63
33.86
29.21
23.36
16.12
7.50
-2.26
-12.66
-23.12
-33.13
-42.38
-50.89
-58.94
-67.03
-75.72
-85.55
-96.84
-109.53
-122.95
-135.78
-146.11
-151.88
-151.39
-143.88
-129.87
-111.02
-89.67
-68.28
-48.78
-32.39
-19.61
-10.58
-5.13
-3.05
-3.92
-7.09
-11.69
-16.71
-21.23
-24.64
-26.69
-27.59
-27.76
-27.78
-28.24
-29.72
-32.74
-37.73
-44.83
-53.85
-64.21
-75.13
-85.78
-95.57
-104.28
-112.04
-119.20
-126.12
-132.86
-138.95
-143.08
-143.25
-136.99
-122.16
-97.65
-64.01
-23.48
20.53
64.30
104.72
139.75
168.48
190.81
207.13
217.96
223.84
225.25
222.56
216.01
205.73
191.98
175.26
156.67
137.99
121.59
110.17
106.07
110.63
123.55
142.76
164.70
185.19
200.55
208.47
208.41
201.34
189.04
173.40
155.81
137.13
117.73
97.75
77.21
55.98
33.89
10.83
-12.89
-36.29
-57.55
-74.29
-84.22
-85.94
-79.52
-66.64
-50.17
-33.32
-18.74
-7.85
-0.82
3.11
4.98
5.59
5.30
4.09
1.86
-1.34
-5.26
-9.58
-14.12
-18.86
-23.86
-29.11
-34.42
-39.47
-43.99
-47.99
-51.80
-55.88
-60.69
-66.32
-72.51
-78.70
-84.36
-89.23
-93.51
-97.88
-103.28
-110.56
-120.08
-131.30
-142.62
-151.54
-155.23
-151.38
-138.93
-118.48
-92.21
-63.22
-34.67
-9.05
12.27
28.95
41.35
50.11
55.82
58.94
59.92
59.22
57.45
55.27
53.24
51.73
50.83
50.40
50.12
49.66
48.72
47.05
44.47
40.86
36.16
30.39
23.65
16.13
8.02
-0.56
-9.66
-19.61
-30.90
-43.82
-58.07
-72.33
-84.34
-91.33
-90.86
-81.76
-64.66
-41.85
-16.63
7.76
28.87
45.53
57.60
65.56
70.04
71.61
70.72
67.87
63.63
58.68
53.63
48.98
44.94
41.50
38.53
35.77
32.93
29.68
25.68
20.67
14.54
7.39
-0.56
-8.99
-17.61
-26.29
-35.04
-44.06
-53.78
-64.67
-77.13
-91.01
-105.26
-117.81
-125.85
-126.64
-118.52
-101.58
-77.83
-50.55
-23.33
0.98
20.79
35.85
46.76
54.35
59.26
61.80
62.02
60.01
56.12
50.99
45.45
40.25
35.86
32.34
29.35
26.42
23.06
18.98
14.10
8.49
2.17
-4.83
-12.56
-21.07
-30.33
-40.34
-51.18
-63.08
-76.33
-90.83
-105.70
-119.06
-128.22
-130.38
-123.61
-107.64
-84.07
-55.96
-26.85
0.23
23.36
41.92
56.10
66.41
73.25
76.81
77.26
74.88
70.37
64.67
58.81
53.66
49.65
46.74
44.46
42.17
39.25
35.29
30.22
24.21
17.52
10.32
2.63
-5.75
-15.11
-25.72
-37.78
-51.39
-66.42
-82.26
-97.59
-110.28
-117.74
-117.55
-108.41
-90.71
-66.59
-39.33
-12.39
11.58
31.18
46.19
57.03
64.29
68.29
69.24
67.38
63.23
57.66
51.72
46.33
42.05
38.97
36.70
34.64
32.13
28.60
23.77
17.66
10.47
2.53
-5.87
-14.64
-23.89
-33.95
-45.25
-58.22
-73.07
-89.52
-106.55
-122.26
-134.03
-139.12
-135.38
-122.13
-100.43
-72.94
-43.10
-14.22
11.38
32.59
49.40
62.32
71.93
78.55
82.29
83.18
81.46
77.64
72.51
66.97
61.81
57.49
54.03
51.02
47.74
43.44
37.54
29.90
20.73
10.52
-0.26
-11.28
-22.52
-34.16
-46.55
-60.09
-75.06
-91.42
-108.47
-124.66
-137.62
-144.58
-143.15
-132.13
-111.99
-84.77
-53.52
-21.35
9.30
36.98
61.16
81.76
98.80
112.16
121.67
127.31
129.33
128.34
125.10
120.35
114.57
108.03
100.88
93.37
85.86
78.79
72.45
66.73
61.07
54.51
46.08
35.14
21.69
6.42
-9.50
-24.81
-38.61
-50.66
-61.51
-72.34
-84.53
-99.16
-116.42
-135.24
-153.25
-167.20
-173.78
-170.61
-156.99
-134.11
-104.63
-71.81
-38.57
-6.90
22.16
48.26
71.23
90.79
106.54
118.07
125.27
128.38
127.98
124.87
119.80
113.38
106.07
98.22
90.20
82.48
75.54
69.63
64.62
59.80
54.13
46.53
36.34
23.58
8.99
-6.24
-20.90
-34.18
-45.83
-56.26
-66.36
-77.26
-90.00
-105.07
-122.02
-139.20
-153.93
-162.96
-163.44
-153.85
-134.47
-107.36
-75.62
-42.50
-10.49
19.02
45.58
69.24
89.99
107.55
121.39
130.99
136.18
137.31
135.21
131.02
125.88
120.68
115.96
111.90
108.47
105.51
102.82
100.12
97.12
93.46
88.83
82.98
75.83
67.46
58.10
48.08
37.80
27.68
18.02
8.94
0.37
-7.99
-16.56
-25.79
-35.95
-47.07
-58.80
-70.60
-81.85
-92.11
-101.35
-109.94
-118.64
-128.38
-139.95
-153.79
-169.55
-185.77
-199.92
-208.77
-209.15
-199.00
-178.10
-148.29
-112.89
-75.63
-39.61
-6.65
22.68
48.57
71.34
91.04
107.35
119.85
128.26
132.73
133.86
132.56
129.80
126.34
122.71
119.06
115.47
111.99
108.70
105.66
102.75
99.62
95.77
90.71
84.17
76.19
67.10
57.35
47.37
37.53
28.13
19.30
11.05
3.19
-4.71
-13.13
-22.36
-32.40
-42.86
-53.11
-62.62
-71.15
-78.88
-86.40
-94.55
-104.23
-116.12
-130.35
-146.20
-161.83
-174.45
-180.88
-178.44
-165.85
-143.82
-114.80
-82.28
-49.64
-19.35
7.43
30.63
50.68
67.97
82.58
94.31
102.94
108.49
111.28
111.93
111.15
109.61
107.75
105.78
103.66
101.33
98.72
95.91
93.05
90.21
87.26
83.84
79.43
73.55
66.03
57.08
47.28
37.40
28.06
19.58
11.87
4.51
-3.00
-11.12
-20.08
-29.82
-40.04
-50.27
-60.01
-68.86
-76.73
-83.87
-90.93
-98.80
-108.41
-120.32
-134.40
-149.37
-162.92
-171.98
-173.59
-165.80
-148.36
-122.94
-92.62
-60.92
-30.82
-4.12
18.64
37.78
53.93
67.53
78.69
87.37
93.51
97.29
99.09
99.45
98.85
97.68
96.08
94.11
91.79
89.15
86.35
83.57
80.93
78.30
75.24
71.08
65.17
57.20
47.43
36.69
26.06
16.44
8.17
0.89
-6.23
-14.10
-23.27
-33.78
-45.16
-56.72
-67.83
-78.16
-87.76
-96.97
-106.46
-117.00
-129.32
-143.75
-159.87
-176.22
-190.25
-198.89
-199.39
-190.27
-171.96
-146.69
-117.80
-88.71
-62.03
-39.08
-20.09
-4.67
7.64
17.14
23.94
28.11
29.93
29.85
28.50
26.53
24.46
22.55
20.89
19.36
17.75
15.81
13.36
10.25
6.35
1.58
-4.15
-10.85
-18.48
-26.89
-35.80
-44.93
-53.96
-62.77
-71.32
-79.72
-88.04
-96.19
-103.84
-110.53
-115.90
-119.85
-122.59
-124.41
-125.25
-124.28
-119.76
-109.36
-90.87
-63.07
-26.30
17.39
64.66
111.51
154.23
189.87
216.65
233.94
242.07
242.11
235.56
224.10
209.29
192.40
174.37
155.81
137.21
119.07
101.93
86.39
72.88
61.56
52.26
44.50
37.62
30.97
23.99
16.25
7.48
-2.32
-12.71
-22.63
-30.37
-33.86
-31.22
-21.47
-5.03
16.16
39.12
60.55
77.61
88.41
92.14
88.90
79.51
65.47
48.96
32.73
19.70
12.29
11.80
18.00
29.27
43.20
57.33
69.81
79.61
86.49
90.56
92.04
91.10
87.93
82.90
76.65
69.97
63.65
58.20
53.68
49.87
46.33
42.71
38.85
34.68
30.16
25.08
19.14
12.06
3.73
-5.58
-15.41
-25.19
-34.58
-43.55
-52.49
-62.00
-72.70
-84.89
-98.28
-111.76
-123.41
-130.78
-131.51
-124.03
-108.22
-85.55
-58.87
-31.63
-7.01
12.77
26.70
34.88
38.13
37.46
33.88
28.20
21.13
13.26
5.17
-2.60
-9.64
-15.61
-20.41
-24.16
-27.15
-29.83
-32.75
-36.46
-41.31
-47.49
-54.90
-63.30
-72.37
-81.88
-91.74
-102.06
-113.23
-125.79
-140.29
-156.85
-174.81
-192.44
-207.08
-215.77
-216.23
-207.65
-191.10
-169.18
-145.21
-122.13
-101.78
-84.62
-69.97
-56.63
-43.43
-29.61
-14.84
0.88
17.47
34.79
52.66
70.73
88.36
104.66
118.55
129.00
135.23
136.80
133.70
126.33
115.40
101.82
86.57
70.50
54.17
37.77
21.06
3.53
-15.46
-36.17
-58.07
-79.45
-97.52
-109.00
-111.04
-102.30
-83.48
-57.22
-27.38
2.16
28.45
50.03
66.83
79.70
89.71
97.67
103.84
108.07
109.96
109.22
105.81
100.14
92.85
84.68
76.29
68.06
60.16
52.56
45.10
37.53
29.59
21.04
11.75
1.76
-8.84
-19.93
-31.55
-43.97
-57.68
-73.11
-90.24
-108.21
-125.00
-137.69
-143.14
-138.95
-124.42
-100.96
-71.73
-40.67
-11.35
14.02
34.70
51.15
64.26
74.68
82.63
87.93
90.36
89.94
87.04
82.33
76.58
70.52
64.65
59.26
54.35
49.66
44.76
39.24
32.73
25.06
16.30
6.60
-3.79
-14.75
-26.25
-38.52
-51.94
-66.97
-83.84
-102.06
-120.15
-135.50
-144.94
-145.63
-136.08
-116.76
-90.11
-59.74
-29.37
-1.92
20.99
38.94
52.27
61.60
67.52
70.48
70.87
68.98
65.08
59.42
52.27
43.97
34.98
25.88
17.18
9.09
1.40
-6.56
-15.73
-26.95
-40.69
-56.89
-75.05
-94.43
-114.40
-134.59
-154.92
-175.59
-196.91
-219.14
-242.23
-265.43
-287.03
-304.40
-314.54
-314.97
-304.62
-284.24
-256.20
-223.62
-189.39
-155.53
-123.09
-92.52
-64.27
-39.03
-17.57
-0.30
13.35
24.98
37.03
52.06
71.91
97.02
126.31
157.57
188.24
216.15
240.05
259.46
274.47
285.31
292.13
294.99
294.01
289.26
280.72
268.21
251.41
230.05
204.15
173.97
139.78
101.72
60.18
16.64
-25.53
-60.92
-83.16
-86.89
-69.66
-32.68
19.74
81.87
148.07
213.52
274.11
325.92
365.21
389.11
396.67
389.34
370.61
344.83
315.88
286.40
257.77
230.48
204.66
180.43
157.84
136.87
117.38
99.21
82.16
66.07
50.77
36.06
21.86
8.16
-4.91
-17.21
-28.74
-39.76
-50.72
-62.11
-74.27
-87.15
-100.39
-113.25
-124.81
-134.10
-140.21
-142.48
-140.61
-134.80
-125.72
-114.51
-102.46
-90.78
-80.41
-71.87
-65.33
-60.82
-58.29
-57.72
-59.06
-62.10
-66.42
-71.40
-76.42
-81.08
-85.32
-89.46
-93.94
-99.07
-104.85
-110.99
-117.06
-122.69
-127.78
-132.55
-137.44
-142.98
-149.68
-157.79
-167.28
-177.66
-187.93
-196.63
-202.13
-202.99
-198.39
-188.47
-174.28
-157.50
-139.89
-122.84
-107.12
-93.01
-80.55
-69.94
-61.53
-55.60
-51.97
-49.79
-47.59
-43.72
-36.90
-26.49
-12.61
4.26
23.58
44.79
67.18
89.62
110.45
127.76
139.88
145.92
146.07
141.31
132.88
121.67
107.89
91.12
70.78
46.70
19.55
-9.12
-37.04
-61.50
-79.55
-88.22
-84.75
-67.31
-35.69
8.15
60.09
114.70
166.56
211.51
247.33
273.60
291.00
300.46
302.77
298.55
288.60
274.10
256.54
237.38
217.65
197.77
177.63
156.90
135.48
113.61
91.92
71.11
51.68
33.72
16.92
0.75
-15.34
-31.74
-48.50
-65.27
-81.29
-95.44
-106.50
-113.37
-115.49
-112.89
-106.30
-96.84
-85.72
-73.98
-62.34
-51.19
-40.82
-31.50
-23.57
-17.41
-13.25
-11.05
-10.47
-10.97
-11.96
-12.97
-13.78
-14.42
-15.02
-15.75
-16.74
-18.04
-19.74
-21.89
-24.61
-27.95
-31.92
-36.48
-41.58
-47.20
-53.32
-59.85
-66.41
-72.28
-76.35
-77.44
-74.64
-67.68
-57.02
-43.80
-29.38
-14.99
-1.53
10.53
20.96
29.53
35.98
40.06
41.69
41.16
39.07
36.20
33.28
30.78
28.76
27.03
25.26
23.20
20.74
17.93
14.85
11.49
7.71
3.22
-2.31
-9.16
-17.50
-27.32
-38.38
-50.18
-61.83
-72.13
-79.74
-83.52
-82.85
-77.86
-69.35
-58.58
-46.87
-35.30
-24.62
-15.32
-7.82
-2.49
0.34
0.53
-1.70
-5.84
-11.14
-16.88
-22.55
-27.97
-33.18
-38.32
-43.46
-48.46
-53.12
-57.22
-60.75
-63.95
-67.31
-71.44
-76.96
-84.32
-93.61
-104.47
-115.96
-126.69
-135.02
-139.51
-139.26
-134.23
-125.15
-113.29
-100.05
-86.66
-74.06
-62.94
-53.91
-47.55
-44.26
-44.04
-46.32
-49.97
-53.67
-56.31
-57.45
-57.39
-57.02
-57.36
-59.18
-62.69
-67.55
-73.03
-78.35
-82.85
-86.25
-88.75
-90.99
-93.75
-97.37
-101.11
-102.93
-99.72
-88.22
-66.17
-33.41
7.94
53.78
99.23
139.82
172.37
195.33
208.56
212.81
209.11
198.43
181.55
159.15
132.07
101.61
69.80
39.46
14.02
-3.22
-9.81
-4.97
10.00
32.02
57.08
81.34
101.95
117.34
126.94
130.69
128.58
120.59
106.83
87.75
64.14
37.00
7.45
-23.15
-52.92
-79.31
-99.26
-109.86
-109.09
-96.46
-73.05
-41.16
-3.65
36.57
76.77
114.47
147.51
174.30
194.05
207.06
214.40
217.48
217.38
214.49
208.61
199.32
186.43
170.30
151.75
131.75
111.19
90.63
70.38
50.56
31.19
12.14
-6.86
-26.29
-46.55
-67.61
-88.66
-107.88
-122.73
-130.60
-129.70
-119.74
-102.14
-79.67
-55.64
-33.05
-14.06
0.12
8.97
12.41
10.65
4.29
-5.47
-16.95
-28.31
-38.08
-45.62
-51.21
-55.80
-60.45
-65.80
-71.82
-77.89
-83.23
-87.37
-90.44
-93.30
-97.23
-103.57
-113.30
-126.51
-142.14
-157.87
-170.42
-176.31
-172.82
-158.88
-135.41
-105.11
-71.53
-38.10
-7.47
18.71
39.59
54.67
63.71
66.87
64.99
59.70
53.22
47.67
44.51
44.06
45.62
47.82
49.33
49.26
47.39
44.00
39.52
34.27
28.28
21.29
12.85
2.49
-10.12
-24.83
-40.70
-55.84
-67.61
-73.18
-70.48
-58.88
-39.54
-15.08
11.27
36.64
59.10
77.76
92.43
103.05
109.42
111.21
108.28
101.08
90.78
79.02
67.44
57.21
48.64
41.31
34.43
27.32
19.81
12.32
5.60
0.31
-3.41
-6.12
-8.92
-13.19
-20.12
-30.32
-43.61
-58.85
-74.06
-86.64
-93.90
-93.70
-85.11
-68.74
-46.61
-21.56
3.59
26.71
46.58
62.81
75.38
84.36
89.79
91.89
91.19
88.48
84.73
80.61
76.44
72.15
67.49
62.33
56.79
51.21
45.98
41.41
37.52
34.06
30.44
25.85
19.37
10.28
-1.60
-15.54
-29.75
-41.57
-48.07
-46.89
-36.95
-18.82
5.47
33.03
61.01
87.19
110.28
129.71
145.17
156.24
162.37
163.11
158.52
149.50
137.76
125.40
114.33
105.68
99.56
95.19
91.31
86.69
80.54
72.62
63.17
52.67
41.48
29.73
17.20
3.36
-12.41
-30.51
-50.67
-71.61
-90.95
-105.66
-112.87
-110.88
-99.85
-81.90
-60.47
-39.27
-21.22
-7.71
1.46
7.63
12.58
17.85
24.30
31.88
39.90
47.24
52.73
55.45
54.88
50.77
43.17
32.38
18.97
3.93
-11.38
-25.51
-37.28
-46.22
-52.80
-58.27
-64.26
-72.30
-83.33
-97.48
-114.05
-131.54
-147.82
-160.28
-166.32
-163.88
-152.10
-131.73
-105.08
-75.41
-46.05
-19.59
2.58
20.17
33.52
43.06
49.04
51.54
50.74
47.18
41.79
35.70
29.88
24.89
20.70
16.85
12.67
7.63
1.56
-5.34
-12.62
-19.79
-26.64
-33.24
-40.00
-47.52
-56.34
-66.83
-79.04
-92.57
-106.43
-118.95
-127.94
-131.09
-126.62
-113.94
-93.99
-69.11
-42.32
-16.53
6.24
25.05
39.92
51.31
59.69
65.29
68.10
68.13
65.54
60.81
54.70
48.11
41.88
36.54
32.20
28.60
25.17
21.22
16.30
10.22
3.12
-4.62
-12.61
-20.60
-28.60
-36.82
-45.72
-55.84
-67.62
-81.17
-95.84
-110.01
-121.20
-126.56
-123.70
-111.67
-91.35
-65.29
-36.96
-9.66
14.35
34.18
49.98
62.40
71.94
78.75
82.68
83.61
81.66
77.33
71.39
64.60
57.64
50.97
44.88
39.53
34.87
30.68
26.49
21.74
15.90
8.72
0.25
-9.14
-19.00
-28.95
-38.84
-48.89
-59.55
-71.33
-84.44
-98.31
-111.34
-121.05
-124.62
-119.80
-105.82
-83.76
-56.31
-26.96
1.04
25.46
45.36
60.81
72.39
80.72
86.14
88.77
88.65
85.95
81.01
74.39
66.75
58.74
50.89
43.66
37.36
32.09
27.71
23.72
19.36
13.76
6.25
-3.36
-14.66
-26.79
-38.78
-49.90
-59.95
-69.31
-78.83
-89.47
-101.89
-115.91
-130.28
-142.60
-149.87
-149.32
-139.38
-120.33
-94.29
-64.55
-34.55
-6.96
16.87
36.73
53.01
66.21
76.50
83.79
87.96
89.07
87.51
83.99
79.24
73.89
68.30
62.64
57.01
51.61
46.73
42.55
38.95
35.33
30.75
24.24
15.29
4.10
-8.42
-21.01
-32.58
-42.61
-51.33
-59.58
-68.48
-79.10
-91.97
-106.71
-121.78
-134.52
-141.71
-140.48
-129.32
-108.79
-81.41
-50.90
-21.00
5.62
27.73
45.42
59.38
70.25
78.30
83.49
85.78
85.44
83.12
79.65
75.71
71.70
67.57
63.21
58.57
53.87
49.50
45.79
42.64
39.44
35.16
28.79
19.77
8.32
-4.62
-17.67
-29.57
-39.57
-47.77
-55.02
-62.67
-72.11
-84.29
-99.18
-115.46
-130.53
-141.04
-143.72
-136.53
-119.35
-94.13
-64.29
-33.58
-5.04
19.57
39.76
55.84
68.26
77.32
83.15
85.91
86.04
84.27
81.49
78.43
75.46
72.51
69.22
65.27
60.57
55.47
50.50
46.15
42.42
38.73
34.06
27.31
17.92
6.09
-7.22
-20.65
-33.00
-43.64
-52.69
-60.97
-69.70
-80.08
-92.90
-108.09
-124.36
-139.26
-149.53
-151.95
-144.36
-126.51
-100.25
-68.97
-36.57
-6.32
19.86
41.50
59.02
73.07
83.98
91.72
96.11
97.23
95.67
92.41
88.59
85.03
82.05
79.44
76.73
73.49
69.60
65.27
60.87
56.59
52.31
47.44
41.20
32.88
22.20
9.49
-4.35
-18.15
-30.86
-41.92
-51.40
-59.93
-68.54
-78.34
-90.19
-104.43
-120.48
-136.57
-149.90
-157.18
-155.53
-143.59
-122.10
-93.72
-62.30
-31.54
-4.12
18.81
37.28
51.87
63.12
71.25
76.32
78.57
78.59
77.36
75.88
74.84
74.34
74.01
73.24
71.61
69.11
66.18
63.36
60.97
58.78
55.98
51.48
44.35
34.28
21.76
8.03
-5.41
-17.30
-27.08
-35.13
-42.58
-50.97
-61.70
-75.45
-91.82
-109.01
-124.09
-133.52
-134.12
-124.11
-103.75
-75.41
-42.86
-10.18
19.38
43.93
63.10
77.43
87.73
94.63
98.46
99.46
98.06
95.06
91.47
88.22
85.75
83.90
82.05
79.46
75.74
70.96
65.67
60.48
55.69
51.09
46.02
39.61
31.20
20.61
8.26
-4.97
-18.00
-29.96
-40.40
-49.47
-57.83
-66.51
-76.59
-88.93
-103.70
-120.02
-135.74
-147.72
-152.51
-147.40
-131.44
-105.86
-73.85
-39.54
-6.85
21.49
44.24
61.39
73.50
81.30
85.35
86.17
84.48
81.25
77.60
74.53
72.59
71.68
71.18
70.32
68.53
65.71
62.24
58.69
55.44
52.39
48.88
43.98
36.89
27.30
15.61
2.81
-9.85
-21.33
-31.13
-39.40
-46.90
-54.70
-63.84
-75.02
-88.24
-102.55
-115.99
-125.82
-129.19
-123.89
-109.26
-86.49
-58.38
-28.53
-0.34
23.78
42.65
56.13
64.62
68.72
69.07
66.38
61.56
55.70
49.89
44.99
41.40
39.10
37.72
36.85
36.11
35.26
34.10
32.36
29.65
25.51
19.60
11.87
2.66
-7.34
-17.34
-26.70
-35.23
-43.29
-51.73
-61.62
-73.72
-87.91
-102.78
-115.67
-123.28
-122.69
-112.38
-92.89
-66.69
-37.47
-9.00
15.84
35.50
49.69
58.83
63.59
64.53
62.18
57.09
50.07
42.20
34.63
28.39
24.07
21.74
20.97
20.98
20.91
20.01
17.76
13.99
8.73
2.17
-5.44
-13.90
-22.95
-32.38
-42.11
-52.29
-63.36
-75.81
-89.73
-104.32
-117.54
-126.37
-127.73
-119.48
-101.46
-75.61
-45.46
-14.99
12.46
34.89
51.71
63.35
70.63
74.38
75.20
73.61
70.11
65.30
59.84
54.39
49.47
45.37
42.08
39.37
36.82
33.91
30.17
25.17
18.70
10.74
1.54
-8.50
-18.90
-29.32
-39.70
-50.31
-61.78
-74.84
-89.91
-106.65
-123.58
-138.06
-146.79
-146.75
-136.23
-115.59
-87.30
-55.27
-23.62
4.40
27.12
44.45
57.39
67.27
75.16
81.54
86.34
89.21
89.81
88.11
84.44
79.48
74.03
68.80
64.17
60.19
56.55
52.71
48.04
41.99
34.18
24.56
13.39
1.21
-11.36
-23.84
-36.13
-48.54
-61.80
-76.65
-93.34
-111.13
-128.01
-140.89
-146.40
-141.94
-126.64
-101.86
-70.77
-37.44
-5.61
22.24
45.13
63.31
77.69
89.17
98.37
105.56
110.79
114.04
115.24
114.33
111.25
106.06
99.08
90.88
82.32
74.28
67.35
61.55
56.23
50.30
42.63
32.57
20.18
6.26
-8.00
-21.53
-33.75
-44.83
-55.61
-67.32
-81.09
-97.47
-115.84
-134.25
-149.52
-158.00
-156.66
-144.15
-121.39
-91.31
-57.99
-25.36
3.75
28.06
47.59
63.07
75.41
85.28
93.11
99.04
103.08
105.10
104.92
102.44
97.71
91.12
83.34
75.33
68.02
62.11
57.76
54.45
51.15
46.57
39.65
29.93
17.74
4.04
-9.97
-23.27
-35.46
-46.84
-58.32
-71.12
-86.17
-103.53
-121.90
-138.61
-150.05
-152.80
-144.71
-125.84
-98.44
-66.28
-33.43
-3.07
23.05
44.64
62.26
76.70
88.52
97.98
105.17
110.17
113.14
114.27
113.70
111.56
107.97
103.24
97.81
92.29
87.21
82.87
79.16
75.59
71.43
65.99
58.86
50.13
40.22
29.79
19.33
9.03
-1.30
-12.06
-23.57
-35.84
-48.52
-61.00
-72.73
-83.45
-93.35
-103.09
-113.71
-126.31
-141.69
-159.69
-178.83
-196.15
-207.74
-209.93
-200.56
-179.90
-150.74
-117.44
-84.48
-55.10
-30.68
-10.90
5.44
19.55
32.06
42.93
51.72
57.95
61.37
62.13
60.68
57.71
53.88
49.72
45.51
41.27
36.92
32.38
27.57
22.48
16.96
10.80
3.63
-4.83
-14.72
-25.89
-37.90
-50.21
-62.18
-73.37
-83.47
-92.44
-100.50
-108.16
-116.22
-125.64
-137.19
-150.91
-165.62
-178.72
-186.63
-185.63
-173.06
-148.12
-112.10
-67.92
-19.08
31.10
80.03
125.89
167.31
203.21
232.73
255.42
271.33
281.10
285.77
286.47
284.16
279.37
272.10
261.99
248.58
231.66
211.56
189.20
165.79
142.58
120.44
99.71
80.31
61.92
44.23
27.19
11.14
-3.12
-14.34
-21.16
-22.42
-17.75
-7.84
5.54
19.92
32.95
43.01
49.69
53.66
56.15
58.34
60.86
63.70
66.44
68.55
69.68
69.74
68.78
66.88
64.09
60.43
55.98
50.96
45.70
40.59
35.91
31.77
28.04
24.34
20.21
15.29
9.57
3.38
-2.63
-7.83
-11.84
-14.78
-17.22
-19.95
-23.69
-28.80
-35.17
-42.27
-49.46
-56.22
-62.36
-68.10
-73.96
-80.56
-88.47
-97.93
-108.74
-120.09
-130.47
-137.85
-140.11
-135.54
-123.61
-105.22
-82.63
-58.88
-36.95
-18.95
-5.83
2.51
6.88
8.21
7.37
5.04
1.81
-1.84
-5.41
-8.53
-11.04
-12.93
-14.40
-15.69
-17.08
-18.83
-21.13
-24.15
-27.98
-32.64
-38.03
-43.95
-50.13
-56.28
-62.23
-68.01
-73.92
-80.55
-88.62
-98.82
-111.40
-125.77
-140.22
-151.96
-157.67
-154.49
-140.97
-117.79
-87.66
-54.60
-22.80
4.56
25.81
40.85
50.63
56.45
59.47
60.44
59.78
57.77
54.75
51.21
47.71
44.68
42.40
40.79
39.57
38.36
36.79
34.62
31.70
27.95
23.27
17.63
11.05
3.60
-4.53
-13.27
-22.69
-33.14
-45.10
-58.90
-74.19
-89.55
-102.44
-109.72
-108.63
-97.80
-77.90
-51.60
-22.67
5.11
29.00
47.69
61.21
70.22
75.49
77.58
76.81
73.53
68.33
62.01
55.54
49.76
45.18
41.90
39.60
37.61
35.19
31.79
27.17
21.48
15.16
8.60
1.98
-4.86
-12.36
-21.01
-31.24
-43.28
-57.10
-72.29
-87.76
-101.63
-111.26
-113.88
-107.43
-91.47
-67.62
-39.13
-9.94
16.54
38.25
54.59
65.94
72.90
75.93
75.21
71.05
64.19
55.88
47.64
40.79
35.97
33.04
31.16
29.26
26.41
22.26
16.95
11.02
5.02
-0.75
-6.46
-12.66
-20.08
-29.44
-41.21
-55.42
-71.51
-88.08
-102.97
-113.41
-116.76
-111.20
-96.54
-74.33
-47.57
-19.74
6.14
28.12
45.52
58.44
67.25
72.24
73.52
71.33
66.30
59.53
52.39
46.11
41.34
37.96
35.25
32.23
28.16
22.75
16.23
9.13
1.92
-5.15
-12.23
-19.80
-28.56
-39.27
-52.55
-68.57
-86.58
-104.70
-119.99
-129.09
-129.20
-119.11
-99.64
-73.53
-44.50
-16.07
9.30
30.56
47.73
61.25
71.38
78.04
81.00
80.27
76.47
70.71
64.41
58.72
54.17
50.53
47.06
42.91
37.58
31.11
23.96
16.74
9.85
3.16
-3.93
-12.30
-22.88
-36.35
-52.80
-71.65
-91.39
-109.61
-123.34
-129.63
-126.39
-113.17
-91.33
-63.74
-33.93
-5.06
20.80
42.74
60.69
74.83
85.20
91.58
93.81
92.05
87.05
80.12
72.77
66.29
61.30
57.63
54.47
50.81
45.87
39.43
31.83
23.66
15.40
7.18
-1.32
-10.73
-21.65
-34.52
-49.48
-66.27
-84.08
-101.33
-115.66
-124.29
-124.70
-115.43
-96.77
-70.77
-40.72
-10.17
18.00
42.09
61.60
76.81
88.26
96.35
101.30
103.24
102.30
98.85
93.47
86.91
79.99
73.47
67.82
63.18
59.27
55.50
51.12
45.49
38.18
29.07
18.40
6.60
-5.78
-18.25
-30.45
-42.35
-54.34
-67.17
-81.69
-98.27
-116.24
-133.53
-146.90
-152.79
-148.52
-133.28
-108.53
-77.50
-44.12
-11.86
17.14
42.06
63.03
80.43
94.43
104.89
111.58
114.51
114.13
111.24
106.73
101.32
95.43
89.19
82.73
76.30
70.30
65.09
60.75
56.81
52.33
46.17
37.47
26.02
12.43
-2.08
-16.12
-28.60
-39.17
-48.28
-57.02
-66.78
-78.74
-93.35
-109.99
-126.71
-140.53
-148.10
-146.65
-134.91
-113.60
-85.24
-53.35
-21.39
8.15
34.05
56.17
74.92
90.65
103.40
112.91
118.88
121.18
120.08
116.30
110.89
104.94
99.42
94.89
91.42
88.67
86.08
83.06
79.17
74.17
68.02
60.81
52.65
43.64
33.83
23.22
11.86
-0.18
-12.69
-25.29
-37.58
-49.19
-59.97
-70.04
-79.85
-90.05
-101.42
-114.61
-129.77
-146.10
-161.67
-173.55
-178.52
-174.03
-159.19
-135.15
-104.81
-71.84
-39.50
-9.88
16.25
39.07
58.97
76.08
90.15
100.74
107.60
110.90
111.25
109.51
106.54
103.02
99.36
95.77
92.29
88.83
85.33
81.60
77.47
72.77
67.35
61.06
53.77
45.37
35.81
25.14
13.59
1.61
-10.28
-21.51
-31.71
-40.77
-48.93
-56.76
-65.04
-74.57
-85.99
-99.41
-114.10
-128.38
-139.68
-145.16
-142.50
-130.73
-110.61
-84.46
-55.44
-26.60
-0.12
22.99
42.68
59.27
73.04
83.96
91.86
96.60
98.43
97.96
96.04
93.50
90.85
88.24
85.49
82.37
78.76
74.74
70.53
66.29
61.97
57.21
51.48
44.20
35.06
24.11
11.84
-0.93
-13.30
-24.56
-34.40
-42.99
-50.90
-58.98
-68.10
-78.95
-91.80
-106.14
-120.53
-132.66
-139.78
-139.48
-130.51
-113.27
-89.80
-63.03
-35.95
-10.72
11.59
30.80
47.12
60.63
71.11
78.23
81.87
82.39
80.67
77.83
74.90
72.43
70.41
68.42
65.97
62.83
59.15
55.38
51.90
48.72
45.30
40.77
34.26
25.45
14.69
2.96
-8.52
-18.79
-27.53
-35.05
-42.11
-49.58
-58.20
-68.39
-80.24
-93.24
-106.18
-117.04
-123.33
-122.71
-113.89
-97.20
-74.61
-49.16
-23.94
-1.27
17.72
32.87
44.43
52.66
57.70
59.66
58.93
56.27
52.60
48.75
45.21
42.04
39.11
36.26
33.54
31.05
28.84
26.66
23.96
20.02
14.22
6.30
-3.55
-14.70
-26.42
-38.04
-49.22
-60.03
-70.91
-82.52
-95.50
-110.16
-126.01
-141.62
-154.73
-162.73
-163.51
-156.30
-141.99
-123.06
-102.76
-84.13
-69.26
-58.82
-52.41
-48.97
-47.39
-46.64
-45.83
-44.06
-40.36
-33.77
-23.50
-9.21
8.90
30.01
52.82
75.64
96.63
114.07
126.56
133.29
134.20
129.86
121.34
109.84
96.47
82.09
67.15
51.78
35.79
18.83
0.70
-18.23
-36.77
-52.77
-63.52
-66.53
-60.52
-46.01
-25.29
-1.74
21.21
41.02
56.46
67.51
74.82
79.16
81.10
80.95
78.98
75.49
70.94
65.83
60.64
55.71
51.19
47.14
43.51
40.18
36.93
33.40
29.16
23.72
16.73
8.12
-1.88
-12.71
-23.69
-34.25
-44.14
-53.60
-63.41
-74.57
-87.85
-103.17
-119.09
-132.91
-141.27
-141.26
-131.49
-112.64
-87.30
-59.01
-31.16
-6.06
15.38
33.36
48.56
61.57
72.59
81.49
88.00
91.99
93.58
93.16
91.25
88.35
84.77
80.61
75.90
70.67
65.11
59.56
54.40
49.78
45.50
40.89
35.03
27.11
16.77
4.34
-9.25
-22.80
-35.29
-46.23
-55.84
-64.88
-74.37
-85.33
-98.47
-113.92
-130.97
-147.85
-161.84
-169.77
-168.88
-157.80
-137.10
-109.27
-77.93
-46.69
-18.16
6.53
27.56
45.75
61.95
76.55
89.40
100.04
107.99
112.96
114.99
114.43
111.85
107.92
103.27
98.46
93.84
89.58
85.61
81.71
77.53
72.73
67.03
60.28
52.41
43.45
33.42
22.41
10.58
-1.82
-14.39
-26.73
-38.52
-49.60
-60.08
-70.27
-80.74
-92.18
-105.31
-120.49
-137.21
-153.77
-167.33
-174.45
-172.25
-159.50
-137.15
-108.14
-76.36
-45.39
-17.50
6.63
27.48
45.94
62.66
77.76
90.94
101.73
109.78
114.94
117.31
117.09
114.65
110.50
105.36
100.05
95.26
91.37
88.29
85.46
82.10
77.51
71.32
63.60
54.74
45.17
35.23
25.01
14.44
3.40
-8.08
-19.80
-31.36
-42.36
-52.55
-61.97
-71.04
-80.53
-91.38
-104.38
-119.70
-136.49
-152.60
-164.93
-170.08
-165.47
-150.29
-125.87
-95.35
-62.66
-31.34
-3.63
19.73
39.18
55.69
70.10
82.82
93.85
102.84
109.39
113.15
114.02
112.15
108.01
102.32
95.95
89.76
84.37
80.05
76.64
73.59
70.18
65.74
59.87
52.61
44.32
35.49
26.50
17.44
8.17
-1.56
-11.87
-22.65
-33.58
-44.21
-54.22
-63.49
-72.26
-81.03
-90.57
-101.63
-114.62
-129.09
-143.46
-155.03
-160.66
-157.66
-144.86
-123.16
-95.36
-65.18
-36.11
-10.44
11.10
28.95
44.05
57.23
68.86
78.92
87.21
93.56
97.83
99.97
100.05
98.29
95.13
91.22
87.33
84.08
81.75
80.10
78.53
76.21
72.45
66.85
59.50
50.85
41.47
31.86
22.25
12.58
2.67
-7.63
-18.23
-28.80
-38.89
-48.21
-56.70
-64.70
-72.90
-82.16
-93.30
-106.66
-121.72
-136.76
-149.09
-155.51
-153.33
-141.37
-120.50
-93.40
-63.74
-34.98
-9.39
12.24
30.36
45.89
59.57
71.67
82.07
90.48
96.73
100.88
103.16
103.85
103.20
101.42
98.78
95.63
92.35
89.34
86.86
84.91
83.23
81.38
78.83
75.12
69.96
63.32
55.40
46.66
37.62
28.85
20.74
13.46
6.87
0.56
-5.99
-13.26
-21.44
-30.41
-39.68
-48.66
-56.79
-63.87
-70.10
-76.18
-83.11
-91.93
-103.34
-117.27
-132.52
-146.72
-156.71
-159.39
-152.69
-136.40
-112.25
-83.54
-54.01
-26.81
-3.76
14.77
29.42
41.22
51.01
59.26
66.07
71.40
75.26
77.75
79.04
79.29
78.67
77.34
75.55
73.62
71.88
70.54
69.58
68.64
67.11
64.35
59.92
53.77
46.30
38.12
29.87
21.92
14.29
6.68
-1.27
-9.75
-18.66
-27.60
-36.01
-43.47
-49.90
-55.72
-61.79
-69.22
-78.93
-91.10
-104.81
-117.89
-127.33
-130.12
-124.18
-109.18
-86.76
-60.05
-32.71
-7.92
12.42
27.85
39.07
47.29
53.64
58.86
63.15
66.44
68.53
69.37
69.07
67.89
66.16
64.13
61.98
59.80
57.58
55.25
52.66
49.69
46.22
42.18
37.62
32.57
27.04
20.96
14.25
6.86
-1.11
-9.41
-17.72
-25.75
-33.41
-40.76
-48.10
-55.80
-64.35
-74.19
-85.53
-98.03
-110.39
-120.36
-125.12
-122.15
-110.28
-90.25
-64.70
-37.36
-11.82
9.54
25.92
37.88
46.58
53.08
57.96
61.35
63.23
63.70
63.10
61.92
60.64
59.53
58.56
57.46
55.88
53.55
50.47
46.89
43.24
39.82
36.67
33.40
29.35
23.89
16.67
7.86
-1.91
-11.78
-20.93
-28.93
-35.72
-41.72
-47.59
-54.06
-61.86
-71.34
-82.37
-93.97
-104.33
-111.02
-111.59
-104.44
-89.40
-68.02
-43.08
-17.78
5.18
24.14
38.60
48.81
55.39
58.90
59.86
58.79
56.35
53.32
50.42
48.16
46.63
45.55
44.46
42.94
40.81
38.26
35.65
33.29
31.18
28.82
25.43
20.26
12.98
3.86
-6.23
-16.21
-25.18
-32.75
-39.15
-45.11
-51.61
-59.56
-69.51
-81.27
-93.73
-104.77
-111.67
-111.86
-103.80
-87.65
-65.33
-39.98
-14.93
7.12
24.73
37.57
46.12
51.08
53.17
53.02
51.28
48.67
45.87
43.38
41.39
39.76
38.20
36.42
34.37
32.16
30.00
27.95
25.76
22.89
18.66
12.57
4.51
-5.09
-15.39
-25.42
-34.44
-42.24
-49.26
-56.46
-64.97
-75.65
-88.49
-102.34
-114.82
-122.91
-123.81
-115.84
-99.18
-75.86
-49.18
-22.62
1.09
20.52
35.47
46.54
54.47
59.84
62.96
64.05
63.50
61.87
59.81
57.83
56.12
54.50
52.50
49.72
46.10
42.02
38.11
34.89
32.38
29.94
26.46
20.86
12.55
1.77
-10.49
-22.91
-34.30
-44.05
-52.29
-59.76
-67.53
-76.71
-88.11
-101.88
-117.17
-131.98
-143.33
-148.05
-143.71
-129.59
-107.07
-79.22
-49.85
-22.23
1.67
21.40
37.53
51.06
62.71
72.77
81.18
87.85
92.78
96.15
98.15
98.96
98.55
96.92
94.12
90.46
86.52
82.99
80.38
78.78
77.76
76.50
74.07
69.78
63.37
55.15
45.82
36.27
27.27
19.27
12.17
5.46
-1.61
-9.74
-19.25
-29.92
-41.10
-51.94
-61.74
-70.28
-77.91
-85.53
-94.31
-105.34
-119.23
-135.58
-152.77
-167.91
-177.47
-178.16
-168.09
-147.50
-118.84
-86.04
-53.24
-23.68
1.09
21.07
37.27
50.86
62.69
73.13
82.23
90.00
96.49
101.76
105.74
108.27
109.14
108.37
106.27
103.48
100.76
98.68
97.41
96.61
95.63
93.71
90.36
85.45
79.24
72.27
65.07
58.01
51.19
44.47
37.66
30.62
23.42
16.29
9.54
3.35
-2.41
-8.24
-14.75
-22.50
-31.59
-41.65
-51.94
-61.63
-70.25
-77.85
-85.07
-92.93
-102.55
-114.70
-129.34
-145.26
-160.02
-170.25
-172.56
-164.62
-146.03
-118.68
-86.22
-52.96
-22.59
2.64
22.23
36.97
48.26
57.40
65.28
72.28
78.43
83.57
87.56
90.26
91.64
91.72
90.59
88.50
85.85
83.14
80.85
79.21
78.05
76.76
74.52
70.62
64.83
57.51
49.48
41.57
34.27
27.53
20.81
13.49
5.13
-4.25
-14.21
-24.12
-33.41
-41.77
-49.35
-56.65
-64.53
-73.89
-85.31
-98.61
-112.51
-124.60
-131.87
-131.55
-122.09
-103.85
-79.06
-51.16
-23.75
0.43
20.07
35.14
46.46
55.06
61.71
66.81
70.50
72.82
73.90
73.92
73.13
71.73
69.90
67.79
65.49
63.06
60.52
57.86
55.02
51.93
48.52
44.66
40.22
35.00
28.79
21.39
12.78
3.20
-6.91
-16.89
-26.17
-34.36
-41.41
-47.67
-53.78
-60.56
-68.83
-79.17
-91.47
-104.68
-116.66
-124.48
-125.24
-117.11
-100.08
-76.15
-48.72
-21.49
2.61
22.08
36.79
47.48
55.06
60.28
63.62
65.47
66.26
66.49
66.57
66.69
66.77
66.54
65.78
64.41
62.61
60.73
59.06
57.69
56.41
54.71
51.99
47.74
41.81
34.50
26.49
18.58
11.33
4.81
-1.45
-8.16
-15.94
-24.90
-34.63
-44.37
-53.41
-61.40
-68.59
-75.65
-83.59
-93.35
-105.55
-120.06
-135.70
-150.17
-160.36
-163.18
-156.57
-140.33
-116.38
-88.25
-59.97
-34.93
-14.98
-0.47
9.42
15.91
20.02
22.39
23.32
23.08
22.06
20.81
19.84
19.49
19.79
20.52
21.29
21.81
21.94
21.71
21.22
20.49
19.41
17.77
15.30
11.87
7.46
2.24
-3.58
-9.74
-15.99
-22.03
-27.46
-31.85
-34.72
-35.64
-34.39
-30.96
-25.77
-19.55
-13.35
-8.14
-4.39
-1.60
1.74
7.72
18.19
33.84
53.74
75.46
95.94
112.38
123.03
127.37
125.87
119.49
109.24
96.10
81.04
65.11
49.46
35.20
23.17
13.84
7.28
3.25
1.26
0.77
1.10
1.50
1.19
-0.47
-3.65
-7.72
-11.19
-12.02
-8.21
1.32
16.24
34.69
53.92
71.22
84.73
93.89
99.25
101.81
102.38
101.09
97.36
90.26
79.04
63.59
44.81
24.61
5.74
-8.85
-16.65
-16.32
-8.12
6.16
23.66
41.27
56.32
67.08
72.84
73.67
70.17
63.28
54.05
43.70
33.46
24.39
17.15
11.89
8.23
5.55
3.29
1.18
-0.67
-1.99
-2.61
-2.75
-3.01
-4.21
-7.09
-11.93
-18.42
-25.85
-33.33
-40.19
-46.15
-51.45
-56.74
-62.81
-70.25
-79.07
-88.45
-96.68
-101.59
-101.12
-94.02
-80.39
-61.72
-40.45
-19.34
-0.76
13.76
23.63
29.04
30.66
29.38
26.11
21.65
16.59
11.34
6.10
0.90
-4.26
-9.38
-14.33
-18.94
-23.00
-26.46
-29.45
-32.34
-35.59
-39.50
-44.16
-49.28
-54.39
-59.03
-62.98
-66.33
-69.46
-72.98
-77.48
-83.43
-90.84
-99.03
-106.45
-110.90
-109.94
-101.75
-85.88
-63.55
-37.47
-11.07
12.53
31.19
44.18
51.89
55.39
55.77
53.89
50.25
45.17
39.00
32.22
25.49
19.43
14.51
10.88
8.37
6.52
4.80
2.67
-0.31
-4.35
-9.47
-15.51
-22.20
-29.22
-36.30
-43.23
-49.98
-56.82
-64.27
-73.02
-83.53
-95.44
-107.29
-116.48
-119.96
-115.24
-101.43
-79.71
-53.07
-25.35
-0.04
20.62
35.96
46.51
53.36
57.58
59.86
60.49
59.57
57.22
53.65
49.22
44.30
39.24
34.24
29.43
24.78
20.20
15.55
10.62
5.30
-0.50
-6.70
-13.13
-19.65
-26.17
-32.87
-40.21
-48.85
-59.38
-71.96
-85.90
-99.48
-110.15
-115.10
-112.21
-100.77
-81.90
-58.17
-32.86
-8.94
11.68
28.29
41.10
50.69
57.54
61.86
63.71
63.25
60.83
57.15
52.93
48.83
45.22
42.18
39.54
37.02
34.36
31.37
27.93
23.97
19.44
14.28
8.42
1.78
-5.73
-14.28
-24.16
-35.58
-48.59
-62.62
-76.25
-87.25
-93.00
-91.25
-80.99
-62.89
-39.22
-13.25
11.72
33.23
50.04
62.08
70.00
74.62
76.69
76.67
74.86
71.58
67.19
62.15
56.97
52.07
47.69
43.85
40.36
36.84
32.92
28.24
22.59
15.96
8.47
0.34
-8.22
-17.06
-26.21
-35.90
-46.55
-58.68
-72.53
-87.68
-102.72
-115.25
-122.35
-121.46
-111.32
-92.51
-67.37
-39.33
-11.84
12.52
32.46
47.85
59.24
67.33
72.61
75.36
75.83
74.32
71.28
67.27
62.83
58.38
54.20
50.42
46.99
43.75
40.43
36.76
32.50
27.47
21.61
15.00
7.74
-0.07
-8.38
-17.28
-26.97
-37.79
-50.01
-63.42
-77.05
-88.96
-96.59
-97.43
-89.95
-74.26
-52.20
-26.75
-1.16
22.03
41.42
56.66
68.03
75.95
80.71
82.57
81.97
79.58
76.23
72.63
69.12
65.63
61.85
57.56
52.85
48.19
44.13
40.99
38.58
36.13
32.60
27.10
19.28
9.50
-1.29
-11.95
-21.58
-29.82
-37.01
-44.00
-51.96
-61.91
-74.27
-88.57
-103.14
-115.34
-122.10
-120.87
-110.51
-91.78
-67.18
-40.14
-13.90
9.37
28.88
44.94
58.26
69.32
78.16
84.50
88.06
88.97
87.75
85.22
82.19
79.21
76.46
73.87
71.26
68.54
65.74
63.00
60.39
57.84
55.01
51.38
46.38
39.61
30.96
20.76
9.68
-1.48
-11.99
-21.44
-29.82
-37.49
-45.12
-53.44
-63.11
-74.48
-87.31
-100.55
-112.28
-120.04
-121.46
-115.07
-100.79
-80.13
-55.66
-30.24
-6.19
15.11
33.26
48.47
61.02
71.10
78.58
83.33
85.36
85.00
82.89
79.83
76.53
73.38
70.40
67.41
64.15
60.61
56.96
53.52
50.44
47.54
44.28
39.91
33.79
25.74
16.09
5.62
-4.72
-14.17
-22.39
-29.57
-36.28
-43.32
-51.53
-61.50
-73.36
-86.47
-99.37
-109.86
-115.46
-114.12
-104.90
-88.41
-66.67
-42.54
-18.82
2.50
20.48
35.16
47.02
56.52
63.81
68.81
71.48
72.02
70.94
68.93
66.59
64.26
61.94
59.41
56.49
53.15
49.59
46.10
42.88
39.85
36.58
32.40
26.73
19.32
10.42
0.76
-8.77
-17.36
-24.66
-30.86
-36.54
-42.54
-49.66
-58.40
-68.77
-80.01
-90.61
-98.46
-101.33
-97.55
-86.57
-69.28
-47.76
-24.67
-2.46
17.17
33.50
46.61
56.91
64.81
70.52
74.09
75.64
75.48
74.15
72.28
70.41
68.85
67.64
66.60
65.54
64.32
62.94
61.44
59.90
58.25
56.25
53.51
49.60
44.24
37.49
29.82
22.00
14.78
8.66
3.62
-0.80
-5.32
-10.56
-16.84
-24.04
-31.77
-39.47
-46.66
-53.02
-58.54
-63.53
-68.67
-74.86
-82.93
-93.19
-105.08
-116.89
-126.11
-129.98
-126.39
-114.60
-95.54
-71.59
-45.85
-21.25
0.10
17.22
30.09
39.31
45.61
49.63
51.85
52.63
52.38
51.53
50.48
49.52
48.76
48.14
47.60
47.08
46.62
46.21
45.73
44.91
43.35
40.73
36.86
31.82
25.96
19.69
13.35
7.09
0.88
-5.49
-12.17
-19.17
-26.33
-33.31
-39.80
-45.64
-50.91
-55.97
-61.44
-67.95
-76.00
-85.50
-95.48
-104.17
-109.16
-108.22
-100.00
-84.68
-63.94
-40.49
-17.24
3.46
20.36
33.25
42.63
49.26
53.81
56.78
58.51
59.28
59.37
59.08
58.69
58.37
58.22
58.22
58.27
58.28
58.18
57.94
57.55
56.97
56.07
54.71
52.69
49.87
46.19
41.75
36.76
31.52
26.33
21.43
16.92
12.78
8.84
4.86
0.64
-3.97
-8.95
-14.18
-19.43
-24.50
-29.24
-33.73
-38.27
-43.29
-49.28
-56.49
-64.86
-73.97
-83.22
-92.04
-100.13
-107.59
-114.93
-122.97
-132.58
-144.38
-158.35
-173.53
-187.94
-198.88
-203.63
-200.30
-188.54
-169.80
-146.89
-123.18
-101.64
-84.10
-71.01
-61.72
-54.97
-49.52
-44.50
-39.52
-34.58
-29.84
-25.42
-21.29
-17.26
-13.14
-8.81
-4.29
0.26
4.69
9.02
13.35
17.87
22.63
27.42
31.85
35.46
38.03
39.70
40.95
42.43
44.61
47.62
51.23
55.04
58.66
61.92
64.85
67.67
70.55
73.44
76.01
77.62
77.35
74.25
67.38
56.03
39.76
18.70
-6.28
-33.39
-59.91
-82.64
-98.50
-105.22
-101.82
-88.67
-67.02
-38.48
-4.53
33.54
74.38
116.15
156.29
191.72
219.41
237.09
243.87
240.33
228.20
209.69
187.01
161.95
136.03
110.62
87.12
66.78
50.41
38.11
29.19
22.44
16.51
10.27
3.05
-5.44
-15.23
-26.27
-38.54
-51.91
-65.91
-79.46
-90.69
-97.13
-96.26
-86.20
-66.43
-38.04
-3.54
33.73
70.31
103.23
130.29
150.06
161.93
166.03
163.15
154.67
142.35
128.00
113.18
99.01
86.05
74.42
63.99
54.58
46.08
38.55
32.10
26.84
22.73
19.58
17.10
14.98
12.94
10.75
8.15
4.87
0.57
-5.01
-11.95
-20.12
-29.06
-38.20
-47.00
-55.19
-62.83
-70.32
-78.26
-87.18
-97.32
-108.42
-119.59
-129.38
-136.01
-137.88
-134.05
-124.67
-110.99
-95.08
-79.17
-65.12
-54.08
-46.46
-42.40
-41.95
-45.31
-52.72
-64.07
-78.69
-95.24
-111.89
-126.68
-138.09
-145.35
-148.65
-148.93
-147.59
-145.97
-145.01
-145.20
-146.69
-149.48
-153.68
-159.48
-167.17
-177.02
-188.98
-202.54
-216.48
-228.78
-236.89
-238.25
-231.01
-214.69
-190.38
-160.48
-127.95
-95.52
-65.00
-37.13
-11.79
11.58
33.49
54.21
73.80
92.32
109.99
127.22
144.52
162.18
180.07
197.51
213.31
226.18
234.98
238.98
237.93
231.85
220.84
204.89
183.80
157.44
125.99
90.37
52.42
15.09
-17.77
-41.87
-53.22
-49.02
-28.42
7.12
53.95
107.00
160.68
209.86
250.45
279.70
296.16
299.63
291.10
272.64
247.04
217.42
186.59
156.73
129.17
104.54
83.03
64.73
49.75
38.19
29.98
24.76
21.78
19.99
18.18
15.26
10.59
4.03
-4.00
-12.69
-21.21
-28.90
-35.57
-41.42
-47.07
-53.26
-60.57
-69.03
-77.89
-85.60
-90.00
-89.07
-81.63
-67.87
-49.49
-29.15
-9.69
6.72
19.09
27.46
32.55
35.16
35.85
34.83
32.17
28.13
23.21
18.08
13.39
9.44
6.08
2.79
-1.07
-5.96
-11.91
-18.53
-25.15
-31.22
-36.50
-41.27
-46.10
-51.74
-58.76
-67.34
-77.16
-87.20
-95.91
-101.27
-101.37
-94.97
-81.96
-63.66
-42.44
-21.11
-2.11
13.06
23.96
30.87
34.33
34.82
32.72
28.48
22.83
16.79
11.46
7.61
5.44
4.53
4.07
3.21
1.48
-1.14
-4.25
-7.35
-10.14
-12.74
-15.62
-19.48
-25.02
-32.70
-42.53
-54.00
-65.92
-76.52
-83.77
-85.75
-81.30
-70.38
-54.26
-35.16
-15.65
2.02
16.45
27.21
34.55
38.94
40.80
40.43
38.07
34.18
29.51
24.95
21.20
18.51
16.64
15.06
13.26
11.05
8.62
6.37
4.64
3.40
2.28
0.56
-2.58
-7.85
-15.65
-25.86
-37.72
-49.80
-60.11
-66.54
-67.31
-61.55
-49.62
-32.97
-13.83
5.52
23.17
37.96
49.36
57.30
61.82
63.06
61.29
57.04
51.12
44.57
38.26
32.75
28.09
23.99
20.04
15.89
11.41
6.61
1.62
-3.48
-8.70
-14.17
-20.13
-26.91
-34.75
-43.52
-52.49
-60.32
-65.24
-65.69
-60.84
-51.03
-37.68
-22.76
-8.15
4.87
15.73
24.42
31.01
35.42
37.38
36.63
33.19
27.61
20.90
14.22
8.51
4.25
1.33
-0.71
-2.44
-4.13
-5.71
-6.89
-7.53
-7.81
-8.37
-10.10
-13.76
-19.64
-27.41
-36.12
-44.36
-50.49
-53.01
-50.82
-43.59
-31.84
-16.92
-0.64
15.18
29.17
40.58
49.25
55.27
58.73
59.61
57.90
53.83
48.02
41.42
35.04
29.50
24.86
20.60
16.02
10.58
4.24
-2.55
-9.15
-15.12
-20.45
-25.57
-31.09
-37.59
-45.45
-54.73
-65.20
-76.18
-86.53
-94.62
-98.64
-97.04
-89.13
-75.40
-57.40
-37.36
-17.45
0.73
16.37
29.30
39.64
47.52
52.91
55.68
55.84
53.62
49.59
44.56
39.40
34.86
31.35
28.92
27.22
25.71
23.78
20.99
17.07
11.97
5.77
-1.36
-9.23
-17.54
-25.94
-34.16
-42.17
-50.25
-58.94
-68.61
-78.98
-88.89
-96.32
-99.04
-95.36
-84.86
-68.59
-48.72
-27.85
-8.19
8.88
22.95
34.26
43.29
50.39
55.61
58.74
59.51
57.89
54.18
49.09
43.51
38.27
33.90
30.54
27.97
25.76
23.42
20.55
16.82
12.05
6.24
-0.47
-7.76
-15.27
-22.65
-29.74
-36.67
-43.86
-51.82
-60.89
-70.79
-80.44
-88.00
-91.38
-88.80
-79.60
-64.44
-45.17
-24.26
-3.96
14.21
29.67
42.49
53.00
61.34
67.35
70.73
71.31
69.37
65.63
61.12
56.83
53.36
50.82
48.87
47.03
44.95
42.50
39.76
36.84
33.70
30.03
25.40
19.43
12.00
3.38
-5.84
-14.96
-23.44
-31.04
-37.86
-44.25
-50.62
-57.33
-64.62
-72.74
-81.91
-92.18
-103.16
-113.71
-121.89
-125.47
-122.64
-112.73
-96.50
-75.88
-53.25
-30.65
-9.28
10.44
28.56
45.11
59.77
71.96
81.00
86.50
88.48
87.46
84.30
79.99
75.37
71.01
67.08
63.48
60.02
56.57
53.10
49.67
46.24
42.66
38.56
33.55
27.36
20.01
11.79
3.21
-5.23
-13.13
-20.32
-26.89
-33.07
-39.23
-45.83
-53.31
-62.05
-72.10
-83.02
-93.73
-102.55
-107.49
-106.87
-99.80
-86.57
-68.62
-48.12
-27.36
-8.07
8.86
23.42
36.07
47.27
57.07
65.12
70.83
73.78
74.00
72.07
68.88
65.37
62.20
59.63
57.55
55.71
53.79
51.58
48.92
45.72
41.89
37.31
31.84
25.41
17.98
9.72
0.92
-8.00
-16.63
-24.62
-31.82
-38.29
-44.28
-50.19
-56.51
-63.76
-72.41
-82.57
-93.83
-105.04
-114.35
-119.56
-118.76
-110.92
-96.34
-76.59
-54.05
-31.16
-9.75
9.29
25.90
40.47
53.37
64.65
73.97
80.90
85.10
86.59
85.76
83.34
80.08
76.68
73.62
71.13
69.24
67.81
66.58
65.17
63.15
60.09
55.73
50.04
43.24
35.70
27.79
19.74
11.63
3.39
-5.04
-13.65
-22.24
-30.48
-38.06
-44.85
-51.00
-57.08
-63.87
-72.19
-82.44
-94.24
-106.28
-116.39
-122.06
-121.22
-112.90
-97.60
-77.10
-53.95
-30.63
-8.95
10.18
26.67
40.80
52.83
62.84
70.72
76.34
79.76
81.27
81.36
80.55
79.27
77.75
76.07
74.21
72.18
70.07
68.02
66.13
64.28
62.12
59.10
54.72
48.72
41.29
33.04
24.75
17.08
10.32
4.24
-1.71
-8.12
-15.30
-23.16
-31.19
-38.81
-45.55
-51.36
-56.60
-62.02
-68.49
-76.79
-87.35
-99.88
-113.27
-125.54
-134.15
-136.59
-131.23
-117.82
-97.75
-73.65
-48.54
-24.98
-4.45
12.72
27.02
39.14
49.58
58.42
65.45
70.45
73.38
74.45
74.03
72.58
70.50
68.17
65.93
64.01
62.55
61.46
60.35
58.69
55.91
51.68
45.99
39.18
31.81
24.39
17.20
10.22
3.20
-4.14
-11.90
-19.91
-27.79
-35.12
-41.64
-47.51
-53.28
-59.79
-67.90
-78.14
-90.35
-103.46
-115.56
-124.19
-126.98
-122.33
-109.89
-90.84
-67.52
-42.80
-19.25
1.42
18.65
32.79
44.61
54.80
63.66
71.07
76.68
80.25
81.79
81.67
80.43
78.63
76.59
74.45
72.11
69.47
66.49
63.25
59.82
56.17
52.09
47.27
41.39
34.31
26.05
16.94
7.38
-2.25
-11.61
-20.50
-28.80
-36.56
-43.99
-51.55
-59.88
-69.64
-81.19
-94.19
-107.35
-118.54
-125.21
-125.20
-117.45
-102.38
-81.81
-58.43
-34.91
-13.32
5.34
20.98
34.12
45.37
55.14
63.51
70.34
75.42
78.65
80.13
80.08
78.80
76.59
73.80
70.84
68.16
66.13
64.84
64.00
62.95
60.90
57.23
51.76
44.83
37.10
29.26
21.72
14.48
7.20
-0.53
-8.92
-17.90
-27.02
-35.77
-43.68
-50.63
-56.89
-63.05
-69.94
-78.37
-88.87
-101.29
-114.58
-126.69
-134.93
-136.68
-130.23
-115.48
-93.99
-68.58
-42.44
-18.19
2.71
20.00
34.27
46.35
56.88
66.02
73.63
79.46
83.41
85.67
86.60
86.61
85.99
84.87
83.36
81.68
80.15
79.17
78.92
79.24
79.54
79.03
76.97
73.01
67.32
60.54
53.51
46.96
41.26
36.35
31.83
27.15
21.91
15.97
9.56
3.12
-2.90
-8.21
-12.93
-17.49
-22.53
-28.58
-35.84
-44.10
-52.74
-60.99
-68.31
-74.51
-79.95
-85.42
-91.90
-100.19
-110.57
-122.43
-134.18
-143.42
-147.49
-144.27
-132.91
-114.24
-90.50
-64.78
-39.99
-18.14
-0.01
14.68
26.72
36.89
45.64
53.02
58.89
63.19
66.05
67.82
68.89
69.57
69.94
69.93
69.43
68.52
67.46
66.63
66.27
66.28
66.13
65.00
62.17
57.36
50.84
43.37
35.87
28.99
22.97
17.52
12.09
6.07
-0.92
-8.90
-17.57
-26.34
-34.61
-41.87
-48.02
-53.39
-58.74
-65.06
-73.28
-83.89
-96.58
-110.02
-121.99
-129.82
-131.17
-124.76
-110.89
-91.40
-69.10
-46.94
-27.16
-10.88
1.82
11.57
19.13
25.08
29.67
32.91
34.77
35.29
34.64
33.09
30.88
28.23
25.19
21.74
17.89
13.65
9.08
4.25
-0.84
-6.42
-12.90
-20.77
-30.38
-41.67
-54.13
-66.91
-79.03
-89.77
-98.89
-106.59
-113.42
-120.07
-127.20
-135.44
-145.24
-156.68
-169.21
-181.36
-190.91
-195.44
-193.05
-183.17
-166.81
-146.19
-123.98
-102.48
-82.99
-65.78
-50.43
-36.28
-22.78
-9.58
3.63
17.34
32.27
49.19
68.63
90.49
113.88
137.27
158.82
177.07
191.33
201.79
209.36
215.09
219.67
223.07
224.58
223.11
217.73
207.93
193.84
176.07
155.43
132.60
108.02
81.86
54.23
25.34
-4.45
-34.58
-64.25
-92.27
-116.92
-135.79
-146.15
-145.61
-132.92
-108.68
-75.27
-36.22
4.82
44.99
82.61
116.89
147.39
173.61
194.94
210.94
221.65
227.57
229.30
227.12
220.79
209.76
193.72
173.21
149.85
126.00
104.14
86.08
72.48
62.81
55.68
49.45
42.71
34.69
25.26
14.79
3.89
-6.95
-17.47
-27.81
-38.39
-49.72
-62.14
-75.58
-89.40
-102.42
-112.98
-119.39
-120.31
-115.25
-104.78
-90.55
-74.82
-59.91
-47.63
-38.88
-33.73
-31.61
-31.71
-33.33
-35.92
-39.05
-42.39
-45.53
-48.18
-50.16
-51.51
-52.45
-53.32
-54.47
-56.23
-58.88
-62.64
-67.64
-73.85
-81.02
-88.74
-96.62
-104.45
-112.26
-120.41
-129.38
-139.68
-151.57
-164.78
-178.24
-189.97
-197.35
-197.75
-189.41
-172.19
-147.73
-119.06
-89.56
-61.86
-37.14
-15.04
5.79
26.86
49.15
72.82
97.36
121.92
145.65
167.85
187.93
205.40
219.81
230.90
238.61
243.06
244.30
242.18
236.18
225.68
210.14
189.58
164.80
137.25
108.82
81.42
56.54
35.04
17.02
1.93
-11.17
-23.15
-34.38
-44.39
-51.86
-55.10
-52.72
-44.40
-31.18
-15.28
0.66
14.43
24.85
31.94
36.43
39.21
40.84
41.33
40.40
37.82
33.69
28.59
23.39
18.97
15.89
14.15
13.27
12.48
10.97
8.18
3.78
-2.26
-9.83
-18.74
-28.69
-39.34
-50.34
-61.49
-72.76
-84.36
-96.42
-108.69
-120.23
-129.36
-134.01
-132.31
-123.29
-107.34
-86.25
-62.73
-39.79
-19.91
-4.64
5.45
10.60
11.40
8.63
3.14
-4.12
-12.02
-19.45
-25.46
-29.66
-32.28
-34.13
-36.31
-39.75
-44.96
-51.87
-59.95
-68.55
-77.17
-85.73
-94.47
-103.87
-114.42
-126.51
-140.24
-155.30
-170.70
-184.63
-194.57
-197.80
-192.10
-176.61
-152.19
-121.22
-86.96
-52.60
-20.60
7.57
31.38
50.88
66.40
78.44
87.49
93.96
98.10
99.99
99.57
96.78
91.71
84.67
76.17
66.83
57.24
47.82
38.82
30.29
22.19
14.49
7.20
0.29
-6.30
-12.82
-19.71
-27.53
-36.72
-47.31
-58.60
-69.10
-76.70
-79.33
-75.53
-65.11
-49.15
-29.71
-9.10
10.79
28.91
44.93
58.87
70.71
80.16
86.80
90.27
90.63
88.36
84.28
79.41
74.64
70.55
67.33
64.78
62.41
59.69
56.18
51.70
46.26
40.00
33.02
25.26
16.61
6.99
-3.55
-14.81
-26.51
-38.30
-49.62
-59.53
-66.72
-69.59
-66.71
-57.35
-41.84
-21.62
1.15
24.23
45.83
64.90
80.98
93.94
103.64
109.80
112.19
110.85
106.30
99.53
91.74
83.98
76.90
70.58
64.72
58.86
52.64
45.90
38.73
31.26
23.65
15.93
8.07
-0.03
-8.51
-17.62
-27.71
-39.19
-52.33
-66.94
-82.04
-95.74
-105.52
-108.90
-104.24
-91.42
-71.94
-48.50
-24.10
-1.26
18.60
35.11
48.61
59.61
68.42
75.09
79.51
81.61
81.49
79.45
75.90
71.29
66.06
60.69
55.65
51.26
47.59
44.34
40.87
36.45
30.52
22.92
13.97
4.25
-5.61
-15.22
-24.52
-33.78
-43.44
-53.96
-65.51
-77.75
-89.61
-99.30
-104.66
-103.79
-95.70
-80.82
-60.83
-38.21
-15.43
5.73
24.42
40.57
54.43
66.19
75.76
82.92
87.49
89.54
89.44
87.75
85.12
82.06
78.94
75.90
72.93
69.94
66.73
63.23
59.39
55.24
50.80
45.99
40.60
34.33
26.90
18.23
8.52
-1.76
-12.05
-21.85
-30.86
-39.08
-46.74
-54.29
-62.30
-71.31
-81.71
-93.34
-105.35
-116.02
-123.05
-124.16
-117.78
-103.61
-82.78
-57.52
-30.47
-3.92
20.62
42.50
61.68
78.26
92.30
103.61
111.98
117.30
119.73
119.66
117.67
114.35
110.21
105.64
100.90
96.16
91.49
86.87
82.22
77.42
72.37
66.99
61.16
54.74
47.57
39.55
30.69
21.17
11.33
1.56
-7.81
-16.59
-24.73
-32.36
-39.71
-47.12
-55.10
-64.23
-74.97
-87.32
-100.49
-112.76
-121.78
-125.21
-121.53
-110.61
-93.84
-73.55
-52.26
-31.78
-12.93
4.35
20.43
35.45
49.09
60.68
69.62
75.62
78.92
80.13
79.96
78.97
77.49
75.56
73.10
70.08
66.53
62.65
58.58
54.45
50.13
45.35
39.67
32.74
24.45
15.06
5.16
-4.53
-13.40
-21.10
-27.67
-33.44
-38.94
-44.73
-51.35
-59.05
-67.72
-76.76
-85.15
-91.54
-94.65
-93.56
-87.97
-78.31
-65.53
-50.86
-35.47
-20.25
-5.72
7.90
20.48
31.84
41.62
49.39
54.80
57.78
58.58
57.75
55.91
53.52
50.74
47.49
43.53
38.71
33.02
26.68
20.02
13.32
6.76
0.36
-6.05
-12.67
-19.73
-27.36
-35.52
-43.97
-52.32
-60.08
-66.93
-72.84
-78.20
-83.74
-90.28
-98.53
-108.87
-121.13
-134.45
-147.27
-157.43
-162.55
-160.72
-151.15
-134.62
-113.26
-89.95
-67.28
-46.78
-28.73
-12.56
2.43
16.45
29.05
39.42
46.89
51.39
53.49
54.24
54.80
56.02
58.28
61.42
64.88
67.93
69.93
70.50
69.53
67.24
63.87
59.64
54.64
48.84
42.21
34.81
26.80
18.42
9.97
1.67
-6.33
-14.00
-21.40
-28.69
-36.12
-44.01
-52.76
-62.61
-73.31
-83.90
-92.59
-97.16
-95.62
-86.98
-71.72
-51.75
-29.76
-8.32
10.77
26.77
39.73
50.00
57.91
63.61
67.33
69.59
71.16
72.94
75.54
78.98
82.75
86.10
88.41
89.60
90.12
90.80
92.57
96.15
101.83
109.49
118.49
127.72
135.68
140.63
140.92
135.33
123.52
106.19
85.02
62.20
39.93
19.80
2.44
-12.42
-25.74
-38.77
-52.59
-67.82
-84.33
-101.11
-116.30
-127.59
-132.82
-130.74
-121.59
-107.19
-90.37
-74.06
-60.38
-50.12
-42.92
-37.74
-33.56
-29.84
-26.57
-24.07
-22.68
-22.50
-23.34
-24.77
-26.23
-27.12
-26.88
-25.01
-21.31
-15.90
-9.32
-2.45
3.78
8.59
11.56
12.62
11.97
9.90
6.68
2.59
-2.04
-6.82
-11.37
-15.44
-19.03
-22.35
-25.78
-29.69
-34.26
-39.56
-45.47
-51.75
-57.91
-63.14
-66.28
-66.05
-61.41
-51.99
-38.41
-22.20
-5.40
9.96
22.40
31.35
37.02
40.17
41.69
42.23
42.16
41.58
40.53
39.15
37.73
36.56
35.82
35.39
34.93
33.99
32.27
29.75
26.73
23.62
20.71
18.02
15.26
11.94
7.66
2.28
-3.89
-10.27
-16.12
-20.92
-24.57
-27.37
-29.96
-33.06
-37.31
-43.12
-50.64
-59.58
-69.20
-78.24
-85.01
-87.84
-85.45
-77.50
-64.67
-48.59
-31.37
-15.05
-1.16
9.49
16.79
21.11
23.04
23.23
22.26
20.72
19.14
18.04
17.81
18.57
20.14
22.11
23.93
25.14
25.53
25.14
24.14
22.71
20.85
18.39
15.04
10.57
4.93
-1.62
-8.57
-15.32
-21.36
-26.55
-31.12
-35.72
-41.21
-48.42
-57.75
-68.93
-80.82
-91.45
-98.55
-100.08
-94.90
-83.13
-66.16
-46.20
-25.62
-6.37
10.41
24.33
35.56
44.48
51.52
56.98
61.05
63.84
65.46
65.95
65.40
63.85
61.38
58.07
54.11
49.79
45.49
41.60
38.35
35.65
33.06
29.86
25.33
19.06
11.12
2.10
-7.21
-16.09
-24.22
-31.71
-39.08
-46.98
-55.99
-66.36
-77.77
-89.15
-98.76
-104.48
-104.43
-97.59
-84.18
-65.73
-44.59
-23.19
-3.46
13.51
27.45
38.57
47.23
53.73
58.26
60.98
62.15
62.13
61.37
60.23
58.86
57.18
54.91
51.82
47.91
43.45
38.89
34.65
30.84
27.18
23.04
17.69
10.68
2.04
-7.68
-17.64
-27.00
-35.26
-42.43
-49.01
-55.82
-63.67
-73.12
-84.16
-96.05
-107.28
-115.77
-119.34
-116.31
-106.12
-89.53
-68.57
-45.84
-23.90
-4.49
11.63
24.60
34.96
43.29
49.86
54.70
57.79
59.31
59.72
59.60
59.42
59.30
59.01
58.13
56.33
53.60
50.33
47.08
44.30
42.08
40.04
37.40
33.41
27.55
19.83
10.74
1.12
-8.15
-16.45
-23.57
-29.84
-35.99
-42.95
-51.58
-62.29
-74.75
-87.71
-99.09
-106.42
-107.52
-101.23
-87.77
-68.79
-46.87
-24.70
-4.45
12.66
26.39
37.07
45.32
51.59
56.14
59.13
60.70
61.18
61.02
60.72
60.59
60.61
60.49
59.76
58.12
55.59
52.53
49.41
46.55
43.84
40.71
36.40
30.27
22.18
12.55
2.27
-7.66
-16.53
-24.10
-30.58
-36.60
-42.92
-50.35
-59.43
-70.24
-82.13
-93.56
-102.29
-105.92
-102.64
-91.93
-74.76
-53.37
-30.54
-8.74
10.33
25.95
38.15
47.36
54.11
58.87
61.96
63.68
64.32
64.18
63.60
62.81
61.97
61.05
59.92
58.39
56.40
53.98
51.34
48.64
45.93
43.09
39.81
35.76
30.70
24.56
17.47
9.69
1.50
-6.79
-14.93
-22.70
-29.97
-36.77
-43.32
-50.12
-57.84
-67.07
-77.96
-89.87
-101.28
-109.97
-113.61
-110.46
-100.00
-83.10
-61.82
-38.80
-16.45
3.45
20.01
33.03
42.69
49.30
53.21
54.86
54.85
53.90
52.73
51.84
51.38
51.10
50.60
49.50
47.68
45.25
42.55
39.89
37.41
34.99
32.24
28.66
23.78
17.37
9.55
0.76
-8.31
-16.99
-24.80
-31.65
-37.88
-44.19
-51.44
-60.33
-71.02
-82.87
-94.33
-103.25
-107.39
-105.10
-95.89
-80.63
-61.26
-40.23
-19.85
-1.75
13.24
24.94
33.55
39.35
42.66
43.78
43.14
41.25
38.64
35.72
32.61
29.16
25.03
19.93
13.76
6.66
-1.12
-9.36
-18.02
-27.28
-37.45
-48.75
-61.18
-74.39
-87.83
-100.82
-112.88
-123.86
-134.10
-144.29
-155.27
-167.64
-181.28
-195.14
-207.28
-215.25
-216.79
-210.59
-196.78
-176.97
-153.68
-129.63
-106.92
-86.61
-68.81
-53.10
-38.96
-26.01
-13.88
-1.96
10.83
25.80
44.10
66.07
90.86
116.63
141.03
162.02
178.54
190.73
199.70
206.88
213.35
219.30
223.89
225.60
222.92
215.05
202.28
185.95
167.83
149.40
131.19
112.68
92.56
69.26
41.59
9.32
-26.36
-62.47
-94.35
-116.51
-123.97
-113.88
-86.61
-45.83
2.54
52.08
97.45
135.35
164.36
184.30
195.50
198.39
193.52
181.72
164.24
142.65
118.72
94.18
70.62
49.41
31.61
17.91
8.51
2.95
0.14
-1.43
-3.36
-6.90
-12.70
-20.72
-30.27
-40.31
-49.76
-57.92
-64.77
-71.05
-78.13
-87.45
-99.75
-114.42
-129.00
-139.43
-141.08
-130.03
-104.53
-65.80
-17.85
33.50
82.22
123.46
154.36
174.09
183.36
183.64
176.67
164.29
148.44
131.14
114.28
99.29
86.81
76.69
68.27
60.71
53.55
46.74
40.70
35.96
32.80
31.06
30.10
28.95
26.72
22.88
17.37
10.58
3.15
-4.37
-11.71
-18.94
-26.41
-34.53
-43.67
-53.99
-65.41
-77.58
-89.81
-101.05
-109.92
-115.09
-115.61
-111.24
-102.68
-91.36
-79.01
-67.18
-56.89
-48.61
-42.46
-38.49
-36.85
-37.74
-41.26
-47.06
-54.35
-61.94
-68.54
-73.19
-75.50
-75.74
-74.76
-73.61
-73.24
-74.28
-76.90
-80.93
-86.01
-91.73
-97.83
-104.25
-111.23
-119.21
-128.82
-140.38
-153.60
-167.22
-179.06
-186.42
-186.98
-179.55
-164.53
-143.85
-120.26
-96.47
-74.55
-55.47
-39.19
-24.99
-11.75
1.74
16.52
33.33
52.46
73.71
96.53
120.17
143.93
167.32
190.04
211.83
232.28
250.70
266.03
277.02
282.40
281.26
273.33
259.05
239.52
216.19
190.49
163.45
135.55
106.76
76.91
46.15
15.39
-13.47
-37.85
-55.02
-63.03
-61.37
-51.32
-35.61
-17.67
-0.74
12.94
22.30
27.33
28.51
26.44
21.61
14.46
5.60
-4.12
-13.63
-22.00
-28.65
-33.52
-36.98
-39.61
-41.94
-44.28
-46.65
-48.87
-50.72
-51.99
-52.62
-52.72
-52.62
-52.89
-54.20
-57.16
-62.03
-68.42
-75.18
-80.46
-82.13
-78.37
-68.26
-52.15
-31.66
-9.24
12.48
31.34
45.99
55.93
61.31
62.58
60.27
55.00
47.58
39.12
30.94
24.31
20.12
18.55
19.03
20.51
21.91
22.46
21.93
20.53
18.55
16.08
12.87
8.38
1.98
-6.80
-18.12
-31.68
-46.61
-61.39
-73.97
-82.06
-83.76
-78.12
-65.54
-47.77
-27.35
-6.89
11.56
26.85
38.61
46.86
51.68
53.00
50.88
45.69
38.35
30.30
23.15
18.20
16.12
16.72
19.20
22.41
25.29
27.10
27.49
26.30
23.49
18.89
12.30
3.47
-7.71
-21.22
-36.81
-53.89
-71.45
-87.87
-101.09
-108.94
-109.76
-102.98
-89.45
-71.20
-50.86
-30.93
-13.20
1.33
12.27
19.56
23.25
23.54
20.94
16.32
10.90
5.91
2.32
0.51
0.26
0.86
1.45
1.33
0.19
-1.89
-4.52
-7.29
-9.98
-12.65
-15.71
-19.80
-25.54
-33.29
-42.82
-53.13
-62.43
-68.57
-69.57
-64.29
-52.81
-36.48
-17.52
1.67
19.05
33.34
43.99
50.98
54.48
54.76
52.18
47.30
41.02
34.44
28.63
24.27
21.45
19.63
17.95
15.57
12.06
7.56
2.59
-2.25
-6.66
-10.77
-15.21
-20.81
-28.33
-38.14
-49.95
-62.71
-74.67
-83.72
-87.82
-85.65
-77.00
-62.83
-45.03
-25.86
-7.30
9.29
23.24
34.41
42.83
48.51
51.38
51.49
49.10
44.86
39.66
34.45
29.90
26.20
23.04
19.83
16.02
11.41
6.25
1.05
-3.70
-7.92
-11.99
-16.65
-22.72
-30.77
-40.92
-52.79
-65.51
-77.74
-87.73
-93.59
-93.66
-87.04
-73.95
-55.78
-34.74
-13.25
6.73
24.04
38.26
49.46
57.78
63.31
66.03
66.00
63.53
59.25
54.01
48.69
44.06
40.53
38.11
36.44
34.87
32.70
29.40
24.74
18.79
11.84
4.23
-3.77
-12.02
-20.49
-29.24
-38.48
-48.54
-59.78
-72.33
-85.70
-98.52
-108.63
-113.61
-111.50
-101.65
-84.92
-63.46
-40.00
-16.99
3.93
22.10
37.46
50.16
60.23
67.58
72.11
74.00
73.75
72.09
69.79
67.36
64.97
62.46
59.52
55.94
51.77
47.36
43.10
39.19
35.47
31.34
26.08
19.18
10.68
1.26
-8.01
-16.18
-22.74
-27.91
-32.48
-37.53
-44.06
-52.70
-63.50
-75.75
-87.92
-97.85
-103.19
-102.09
-93.83
-79.09
-59.79
-38.32
-16.82
3.38
21.80
38.46
53.36
66.21
76.46
83.56
87.25
87.80
85.89
82.46
78.37
74.18
70.11
66.13
62.09
57.95
53.85
50.00
46.50
43.12
39.26
34.12
27.04
17.85
6.99
-4.55
-15.66
-25.48
-33.78
-40.96
-47.88
-55.54
-64.71
-75.79
-88.55
-102.08
-114.83
-124.71
-129.61
-127.92
-119.10
-103.91
-84.18
-62.17
-39.90
-18.66
1.06
19.24
35.86
50.65
63.03
72.37
78.30
80.90
80.70
78.56
75.46
72.24
69.42
67.16
65.27
63.40
61.16
58.34
54.91
50.97
46.61
41.80
36.36
30.02
22.57
14.04
4.74
-4.79
-13.92
-22.14
-29.29
-35.59
-41.59
-47.98
-55.37
-64.19
-74.58
-86.31
-98.62
-110.13
-118.96
-123.02
-120.59
-110.89
-94.43
-72.93
-48.81
-24.45
-1.61
18.88
36.88
52.64
66.30
77.74
86.58
92.40
95.12
95.14
93.31
90.67
88.06
85.92
84.24
82.77
81.27
79.69
78.15
76.69
75.17
73.08
69.77
64.71
57.83
49.58
40.80
32.35
24.84
18.35
12.47
6.54
-0.09
-7.71
-16.19
-25.02
-33.58
-41.36
-48.29
-54.67
-61.20
-68.68
-77.74
-88.62
-100.99
-113.82
-125.49
-133.83
-136.70
-132.50
-120.75
-102.41
-79.60
-55.04
-31.27
-9.95
8.29
23.61
36.49
47.21
55.72
61.78
65.26
66.44
65.99
64.86
63.86
63.43
63.51
63.64
63.27
62.05
59.97
57.27
54.31
51.29
48.12
44.44
39.75
33.64
25.99
17.02
7.28
-2.51
-11.75
-20.09
-27.55
-34.48
-41.37
-48.77
-57.14
-66.78
-77.70
-89.39
-100.67
-109.70
-114.33
-112.70
-103.90
-88.41
-68.03
-45.27
-22.66
-2.02
15.83
30.83
43.34
53.72
62.09
68.35
72.33
74.05
73.78
72.11
69.73
67.21
64.88
62.71
60.47
57.87
54.77
51.20
47.31
43.25
38.96
34.17
28.45
21.37
12.73
2.64
-8.45
-19.87
-30.88
-40.97
-49.96
-58.08
-65.88
-74.05
-83.24
-93.88
-105.91
-118.63
-130.56
-139.61
-143.51
-140.45
-129.76
-112.17
-89.68
-64.89
-40.27
-17.53
2.67
20.45
36.30
50.59
63.41
74.47
83.32
89.60
93.18
94.28
93.34
90.97
87.79
84.33
80.99
78.00
75.41
73.06
70.62
67.64
63.73
58.66
52.44
45.33
37.68
29.76
21.65
13.22
4.24
-5.43
-15.71
-26.26
-36.61
-46.35
-55.33
-63.83
-72.49
-82.16
-93.46
-106.44
-120.19
-132.81
-141.77
-144.58
-139.60
-126.58
-106.81
-82.66
-56.92
-31.95
-9.27
10.58
27.77
42.84
56.29
68.39
79.08
87.98
94.61
98.56
99.75
98.49
95.43
91.41
87.18
83.25
79.80
76.79
73.98
71.01
67.51
63.13
57.65
51.07
43.65
35.73
27.63
19.46
11.08
2.24
-7.23
-17.22
-27.35
-37.13
-46.23
-54.63
-62.76
-71.33
-81.12
-92.65
-105.76
-119.39
-131.52
-139.56
-141.05
-134.45
-119.76
-98.61
-73.70
-47.98
-23.76
-2.28
16.27
32.30
46.35
58.75
69.53
78.56
85.71
90.99
94.53
96.54
97.20
96.70
95.24
93.14
90.82
88.75
87.23
86.26
85.51
84.38
82.26
78.71
73.62
67.19
59.82
51.91
43.83
35.88
28.24
21.05
14.31
7.88
1.52
-5.09
-12.23
-20.02
-28.38
-37.01
-45.50
-53.48
-60.82
-67.71
-74.66
-82.41
-91.64
-102.81
-115.76
-129.55
-142.37
-151.74
-155.08
-150.49
-137.46
-117.13
-92.04
-65.31
-39.71
-16.94
2.53
19.13
33.53
46.23
57.35
66.75
74.29
79.95
83.94
86.49
87.88
88.30
87.90
86.87
85.45
83.91
82.47
81.21
80.00
78.54
76.50
73.62
69.77
65.03
59.56
53.52
47.05
40.30
33.46
26.71
20.24
14.07
8.07
1.97
-4.49
-11.45
-18.85
-26.53
-34.21
-41.68
-48.75
-55.36
-61.53
-67.53
-73.89
-81.38
-90.72
-102.11
-114.88
-127.18
-136.39
-139.83
-135.62
-123.39
-104.46
-81.37
-57.07
-34.11
-14.00
2.74
16.44
27.68
37.03
44.82
51.16
56.17
59.99
62.90
65.14
66.83
67.94
68.33
67.96
66.98
65.74
64.64
63.90
63.42
62.75
61.28
58.47
54.08
48.26
41.47
34.36
27.47
21.12
15.27
9.54
3.46
-3.38
-11.10
-19.51
-28.14
-36.51
-44.26
-51.36
-58.15
-65.22
-73.31
-83.03
-94.44
-106.81
-118.47
-127.04
-130.07
-125.86
-114.09
-96.03
-74.19
-51.45
-30.20
-11.81
3.47
16.15
26.95
36.41
44.71
51.77
57.40
61.48
64.00
65.06
64.91
63.85
62.29
60.65
59.26
58.26
57.55
56.75
55.39
53.05
49.53
44.87
39.32
33.17
26.70
19.99
13.03
5.74
-1.91
-9.87
-17.93
-25.77
-33.14
-39.95
-46.37
-52.88
-60.16
-68.94
-79.70
-92.32
-105.90
-118.61
-127.99
-131.58
-127.61
-115.74
-97.21
-74.52
-50.65
-28.11
-8.43
8.00
21.58
32.91
42.40
50.19
56.24
60.56
63.40
65.12
66.12
66.68
66.89
66.75
66.22
65.29
64.01
62.43
60.57
58.46
56.03
53.18
49.73
45.43
40.03
33.38
25.56
16.80
7.57
-1.70
-10.61
-19.01
-26.96
-34.73
-42.76
-51.56
-61.59
-72.91
-85.01
-96.57
-105.60
-109.94
-107.90
-98.95
-83.90
-64.78
-44.12
-24.18
-6.44
8.61
21.18
31.83
41.05
49.08
55.87
61.28
65.09
67.21
67.77
67.12
65.76
64.22
62.84
61.68
60.53
59.09
57.13
54.62
51.65
48.26
44.33
39.57
33.57
26.12
17.33
7.65
-2.29
-11.89
-20.81
-29.01
-36.67
-44.12
-51.74
-59.94
-69.18
-79.79
-91.66
-103.93
-114.87
-122.11
-123.31
-117.03
-103.29
-83.61
-60.53
-36.81
-14.61
4.81
21.10
34.44
45.19
53.73
60.35
65.40
69.21
72.10
74.27
75.78
76.55
76.47
75.55
73.97
72.09
70.37
69.09
68.26
67.54
66.29
63.80
59.62
53.73
46.57
38.82
31.18
24.04
17.40
10.99
4.35
-2.79
-10.50
-18.57
-26.70
-34.60
-42.09
-49.24
-56.32
-63.85
-72.47
-82.70
-94.54
-107.11
-118.52
-126.21
-127.68
-121.34
-107.15
-86.69
-62.70
-38.18
-15.52
3.91
19.75
32.35
42.29
50.07
56.08
60.59
63.87
66.26
68.07
69.51
70.62
71.29
71.37
70.81
69.79
68.63
67.65
67.03
66.59
65.86
64.20
61.10
56.38
50.27
43.34
36.24
29.52
23.40
17.73
12.10
5.97
-1.06
-9.07
-17.72
-26.32
-34.16
-40.79
-46.26
-51.16
-56.46
-63.19
-72.08
-83.17
-95.58
-107.54
-116.67
-120.52
-117.35
-106.75
-89.83
-68.94
-46.92
-26.26
-8.53
5.76
16.87
25.34
31.65
36.06
38.74
39.88
39.89
39.29
38.64
38.38
38.64
39.29
39.91
40.03
39.27
37.55
35.11
32.30
29.43
26.50
23.13
18.81
13.13
6.09
-1.82
-9.85
-17.25
-23.60
-28.95
-33.70
-38.53
-44.14
-51.16
-60.02
-70.68
-82.40
-93.62
-102.08
-105.44
-102.03
-91.51
-75.08
-55.11
-34.35
-15.10
1.30
14.54
24.99
33.27
39.85
44.95
48.65
51.09
52.50
53.21
53.55
53.71
53.74
53.57
53.07
52.14
50.77
48.99
46.91
44.59
42.02
39.06
35.45
30.82
24.85
17.39
8.61
-0.99
-10.74
-19.96
-28.31
-35.83
-42.97
-50.44
-58.98
-69.17
-81.19
-94.67
-108.48
-120.81
-129.38
-132.05
-127.50
-115.73
-98.15
-77.09
-55.10
-34.20
-15.50
0.74
14.83
27.22
38.30
48.34
57.47
65.70
72.92
78.93
83.45
86.31
87.50
87.23
85.90
83.99
82.01
80.29
78.95
77.77
76.28
73.82
69.83
64.02
56.54
47.96
39.05
30.50
22.62
15.22
7.76
-0.36
-9.44
-19.29
-29.25
-38.57
-46.70
-53.58
-59.77
-66.18
-73.84
-83.55
-95.53
-109.19
-123.05
-134.82
-141.91
-142.07
-134.14
-118.54
-97.13
-72.71
-48.11
-25.41
-5.62
11.21
25.60
38.16
49.28
59.16
67.84
75.38
81.83
87.19
91.41
94.39
96.09
96.62
96.26
95.47
94.67
94.16
94.01
94.06
93.97
93.33
91.81
89.22
85.57
81.02
75.88
70.43
64.94
59.59
54.44
49.52
44.82
40.28
35.84
31.40
26.80
21.85
16.40
10.45
4.18
-2.14
-8.26
-14.08
-19.80
-25.82
-32.55
-40.17
-48.52
-57.14
-65.45
-73.06
-79.90
-86.30
-92.89
-100.48
-109.77
-121.07
-133.95
-147.03
-158.02
-164.14
-163.01
-153.38
-135.73
-112.16
-85.72
-59.45
-35.65
-15.40
1.18
14.62
25.66
34.96
43.04
50.30
56.93
62.97
68.32
72.77
76.16
78.44
79.74
80.31
80.43
80.36
80.25
80.14
79.91
79.33
78.06
75.79
72.31
67.60
61.79
55.20
48.20
41.13
34.25
27.69
21.36
15.05
8.45
1.32
-6.41
-14.57
-22.80
-30.63
-37.74
-44.09
-49.93
-55.85
-62.57
-70.75
-80.74
-92.29
-104.37
-115.20
-122.54
-124.24
-118.93
-106.50
-88.24
-66.50
-44.02
-23.14
-5.36
8.92
20.07
28.86
36.09
42.24
47.45
51.66
54.73
56.61
57.38
57.30
56.66
55.81
55.02
54.48
54.19
54.00
53.62
52.63
50.71
47.65
43.47
38.38
32.64
26.49
20.06
13.27
6.02
-1.79
-10.09
-18.62
-27.01
-34.87
-42.01
-48.58
-55.06
-62.20
-70.75
-81.11
-92.88
-104.73
-114.51
-119.72
-118.28
-109.26
-93.26
-72.30
-49.24
-26.88
-7.27
8.70
21.20
31.02
39.08
46.03
52.10
57.19
61.14
63.91
65.66
66.69
67.33
67.76
68.03
68.04
67.77
67.28
66.71
66.15
65.58
64.72
63.13
60.39
56.23
50.72
44.20
37.18
30.20
23.63
17.59
11.93
6.29
0.28
-6.41
-13.85
-21.92
-30.24
-38.38
-45.92
-52.69
-58.79
-64.68
-71.07
-78.78
-88.37
-99.81
-112.18
-123.61
-131.65
-133.92
-128.85
-116.21
-97.27
-74.42
-50.48
-27.97
-8.52
7.30
19.78
29.68
37.78
44.73
50.82
56.18
60.81
64.70
67.85
70.27
71.96
72.88
73.08
72.71
72.00
71.22
70.60
70.17
69.79
69.06
67.46
64.44
59.67
53.21
45.55
37.49
29.88
23.26
17.67
12.67
7.52
1.59
-5.41
-13.30
-21.53
-29.47
-36.65
-42.96
-48.76
-54.70
-61.62
-70.27
-80.93
-93.26
-106.06
-117.39
-124.95
-126.71
-121.51
-109.52
-92.25
-72.10
-51.65
-33.03
-17.45
-5.21
4.05
10.91
15.84
19.11
20.72
20.68
19.10
16.37
13.11
10.01
7.59
6.00
4.99
3.98
2.31
-0.48
-4.54
-9.67
-15.51
-21.73
-28.15
-34.80
-41.89
-49.66
-58.19
-67.37
-76.87
-86.23
-95.03
-103.06
-110.42
-117.58
-125.23
-134.13
-144.81
-157.28
-170.77
-183.63
-193.50
-197.92
-195.01
-184.30
-166.90
-145.27
-122.32
-100.41
-80.50
-62.04
-43.47
-23.12
-0.10
25.35
52.05
78.51
103.63
127.08
149.25
170.79
192.05
212.81
232.23
249.13
262.39
271.26
275.43
274.92
269.88
260.47
246.91
229.65
209.47
187.47
164.89
142.75
121.54
101.11
80.81
59.92
37.96
15.05
-8.11
-30.41
-50.39
-66.32
-76.17
-77.92
-70.12
-52.57
-26.82
3.93
35.56
64.21
87.28
103.91
114.61
120.59
122.93
122.22
118.70
112.63
104.66
95.81
87.34
80.26
75.08
71.73
69.70
68.33
67.07
65.59
63.74
61.47
58.66
55.07
50.43
44.55
37.43
29.36
20.79
12.33
4.49
-2.35
-8.18
-13.27
-18.17
-23.52
-29.89
-37.56
-46.50
-56.35
-66.39
-75.63
-82.82
-86.69
-86.16
-80.70
-70.56
-56.87
-41.41
-26.18
-12.85
-2.50
4.59
8.69
10.39
10.31
9.01
6.98
4.69
2.56
0.93
-0.06
-0.46
-0.46
-0.30
-0.12
0.02
0.11
0.00
-0.60
-2.13
-4.91
-9.04
-14.27
-20.07
-25.83
-31.15
-36.02
-40.87
-46.44
-53.60
-62.97
-74.64
-87.93
-101.28
-112.47
-119.11
-119.28
-112.13
-98.27
-79.58
-58.64
-38.08
-19.92
-5.22
5.83
13.65
18.91
22.29
24.32
25.43
25.96
26.22
26.48
26.97
27.75
28.78
29.86
30.70
30.99
30.51
29.12
26.78
23.50
19.32
14.32
8.63
2.47
-3.85
-10.07
-16.05
-21.98
-28.31
-35.54
-43.90
-52.97
-61.54
-67.82
-70.01
-66.88
-58.32
-45.33
-29.79
-13.87
0.56
12.31
20.95
26.67
30.03
31.67
32.19
32.01
31.40
30.42
29.05
27.18
24.75
21.79
18.49
15.12
11.99
9.27
6.93
4.76
2.36
-0.61
-4.36
-8.92
-14.13
-19.76
-25.56
-31.41
-37.39
-43.73
-50.73
-58.56
-66.97
-75.12
-81.59
-84.67
-82.78
-75.06
-61.76
-44.23
-24.64
-5.43
11.30
24.31
33.28
38.73
41.59
42.82
43.06
42.58
41.42
39.49
36.87
33.74
30.44
27.33
24.63
22.43
20.62
