1523201931.00
64.000000
-0.00
-0.00
-0.00
-0.00
-0.00
-0.00
-0.00
-0.00
-0.00
-0.00
0.00
0.01
0.01
-0.00
-0.03
-0.05
-0.05
0.00
0.13
0.36
0.66
1.01
1.37
1.72
2.06
2.40
2.79
3.24
3.80
4.42
5.06
5.66
6.20
6.68
7.15
7.68
8.31
9.14
10.09
11.04
11.88
12.56
13.14
13.76
14.65
15.96
17.91
20.32
22.90
25.38
27.58
29.57
31.68
34.32
37.81
42.54
48.15
54.10
59.83
64.97
69.58
74.14
79.34
85.71
93.76
103.00
112.62
121.73
129.77
136.75
143.30
150.75
157.77
166.64
177.95
191.79
206.97
220.57
228.25
225.36
208.53
176.87
132.76
80.05
23.07
-34.95
-92.44
-149.16
-205.23
-260.36
-313.73
-363.85
-409.79
-450.85
-486.41
-515.61
-537.06
-549.01
-549.70
-538.05
-513.82
-478.23
-433.37
-381.87
-326.37
-269.12
-211.84
-155.78
-101.99
-51.32
-4.76
36.83
72.79
102.84
127.12
146.15
160.64
171.28
178.72
183.34
185.43
185.22
182.98
179.07
173.89
167.85
161.30
154.50
147.57
140.59
133.61
126.66
119.81
113.13
106.70
100.56
94.75
89.28
84.17
79.41
75.02
71.02
67.41
64.21
61.42
59.03
57.02
55.36
53.98
52.80
51.68
50.49
49.02
47.12
44.60
41.36
37.31
32.45
26.83
20.57
13.89
7.03
0.27
-6.12
-11.88
-16.82
-20.78
-23.70
-25.58
-26.47
-26.47
-25.75
-24.44
-22.70
-20.66
-18.43
-16.08
-13.66
-11.18
-8.69
-6.16
-3.60
-0.99
1.70
4.47
7.35
10.35
13.43
16.56
19.71
22.88
26.07
29.29
32.59
36.00
39.62
43.37
47.21
51.16
55.22
59.40
63.72
68.22
72.95
77.99
83.17
88.42
93.68
98.91
104.10
109.27
114.44
119.63
124.91
130.01
134.71
138.78
142.00
144.07
144.59
143.07
138.79
133.02
126.20
118.64
110.52
102.04
93.32
84.51
75.73
67.13
58.87
50.79
42.81
34.86
26.95
19.07
11.23
3.48
-4.12
-11.49
-18.77
-26.03
-33.33
-40.67
-48.03
-55.33
-62.48
-69.31
-75.58
-81.13
-85.64
-88.71
-89.81
-88.40
-83.90
-75.86
-64.02
-48.39
-29.42
-7.95
14.91
37.87
59.61
78.96
95.04
107.33
115.63
120.05
120.92
118.72
114.02
107.42
99.56
91.05
82.37
73.89
65.74
57.87
50.12
42.28
34.24
26.06
17.93
10.14
2.84
-3.95
-10.52
-17.29
-24.67
-32.90
-41.84
-51.09
-60.09
-68.46
-76.16
-83.61
-91.51
-100.60
-111.28
-123.47
-136.68
-150.22
-163.55
-176.51
-189.33
-202.61
-217.07
-233.59
-253.06
-275.96
-301.84
-328.71
-353.00
-370.34
-376.95
-371.06
-353.68
-328.14
-298.78
-269.35
-242.00
-217.27
-194.71
-173.82
-154.43
-136.65
-120.54
-105.85
-92.16
-79.20
-67.11
-56.40
-47.75
-41.50
-37.46
-34.88
-32.80
-30.47
-27.73
-25.15
-23.77
-24.56
-27.80
-32.74
-37.56
-39.93
-37.80
-30.22
-17.71
-2.07
14.27
29.09
41.09
50.01
56.46
61.35
65.44
69.05
72.09
74.27
75.45
75.68
75.22
74.41
73.43
72.18
70.38
67.71
64.05
59.60
54.84
50.31
46.30
42.77
39.35
35.56
31.06
25.91
20.49
15.35
10.94
7.34
4.25
1.08
-2.81
-7.90
-14.37
-22.02
-30.22
-37.89
-43.60
-45.84
-43.47
-36.19
-24.78
-10.94
3.19
15.80
25.88
33.31
38.64
42.58
45.58
47.69
48.75
48.63
47.53
45.94
44.38
43.20
42.38
41.61
40.48
38.81
36.73
34.65
32.97
31.80
30.90
29.72
27.68
24.46
20.09
14.97
9.69
4.83
0.78
-2.39
-4.97
-7.52
-10.74
-15.26
-21.41
-28.94
-37.03
-44.29
-49.00
-49.65
-45.38
-36.37
-23.82
-9.69
3.92
15.41
23.98
29.71
33.13
34.87
35.34
34.72
33.14
30.91
28.54
26.57
25.36
24.90
24.90
24.93
24.71
24.22
23.58
22.92
22.21
21.18
19.44
16.72
12.96
8.42
3.55
-1.16
-5.35
-8.98
-12.32
-15.88
-20.29
-26.05
-33.21
-41.14
-48.57
-53.73
-54.92
-51.04
-42.09
-29.23
-14.41
0.23
12.98
22.92
29.95
34.46
36.96
37.89
37.54
36.16
34.14
31.98
30.19
29.09
28.71
28.76
28.73
28.22
27.04
25.38
23.60
21.99
20.60
19.10
17.00
13.83
9.47
4.14
-1.65
-7.35
-12.54
-17.07
-21.05
-24.78
-28.73
-33.41
-39.17
-45.91
-52.90
-58.67
-61.39
-59.52
-52.43
-40.82
-26.47
-11.68
1.60
12.31
20.36
26.26
30.69
33.97
36.12
37.04
36.76
35.66
34.34
33.35
33.00
33.20
33.60
33.70
33.19
32.00
30.33
28.49
26.76
25.16
23.46
21.24
18.06
13.71
8.28
2.24
-3.72
-9.00
-13.25
-16.58
-19.47
-22.64
-26.77
-32.35
-39.39
-47.38
-55.19
-61.23
-63.80
-61.61
-54.22
-42.36
-27.70
-12.36
1.67
13.11
21.54
27.27
30.93
33.10
34.22
34.50
34.13
33.31
32.33
31.42
30.73
30.29
30.00
29.71
29.28
28.58
27.56
26.25
24.71
23.04
21.27
19.32
16.98
14.06
10.39
5.99
1.13
-3.85
-8.55
-12.69
-16.18
-19.18
-22.03
-25.26
-29.45
-35.02
-41.94
-49.52
-56.41
-60.83
-61.17
-56.51
-47.02
-33.93
-19.16
-4.74
7.77
17.53
24.41
28.85
31.47
32.83
33.32
33.12
32.31
31.05
29.64
28.48
27.95
28.16
28.86
29.57
29.77
29.10
27.67
25.81
23.93
22.28
20.84
19.34
17.44
14.95
11.86
8.34
4.64
0.93
-2.70
-6.29
-9.96
-13.85
-18.13
-22.91
-28.30
-34.31
-40.67
-46.74
-51.48
-53.67
-52.25
-46.71
-37.46
-25.69
-13.16
-1.63
7.69
14.31
18.50
20.91
22.19
22.70
22.58
21.86
20.76
19.69
19.17
19.55
20.83
22.62
24.33
25.46
25.76
25.36
24.51
23.47
22.26
20.68
18.37
15.02
10.59
5.30
-0.37
-5.84
-10.68
-14.72
-18.19
-21.55
-25.38
-30.14
-36.01
-42.64
-49.16
-54.24
-56.41
-54.57
-48.32
-38.23
-25.67
-12.41
-0.09
10.20
18.08
23.69
27.39
29.56
30.46
30.37
29.59
28.52
27.54
26.91
26.65
26.60
26.44
25.83
24.64
22.90
20.86
18.87
17.28
16.15
15.31
14.26
12.40
9.27
4.79
-0.66
-6.41
-11.73
-16.17
-19.76
-22.93
-26.37
-30.68
-36.22
-42.81
-49.75
-55.83
-59.58
-59.63
-55.13
-46.11
-33.52
-19.12
-4.84
7.65
17.36
24.06
28.15
30.26
31.05
31.08
30.65
29.96
29.07
28.06
27.01
26.09
25.38
24.87
24.38
23.69
22.67
21.37
20.10
19.18
18.70
18.37
17.55
15.62
12.23
7.59
2.36
-2.68
-6.96
-10.36
-13.19
-15.97
-19.21
-23.30
-28.41
-34.53
-41.36
-48.23
-54.04
-57.30
-56.64
-51.18
-41.10
-27.63
-12.80
1.24
12.82
21.16
26.41
29.26
30.55
30.89
30.64
29.94
28.89
27.65
26.45
25.53
25.02
24.96
25.25
25.71
26.09
26.16
25.77
24.87
23.53
21.89
20.07
18.04
15.61
12.54
8.66
4.03
-1.06
-6.13
-10.76
-14.67
-17.81
-20.35
-22.63
-25.09
-28.18
-32.28
-37.53
-43.59
-49.52
-53.88
-55.15
-52.24
-44.93
-34.03
-21.10
-7.96
3.89
13.49
20.50
24.98
27.18
27.45
26.19
23.91
21.20
18.68
16.85
15.98
16.05
16.77
17.71
18.42
18.57
18.09
17.18
16.13
15.26
14.64
14.10
13.23
11.58
8.87
5.19
0.94
-3.33
-7.19
-10.50
-13.52
-16.69
-20.46
-25.09
-30.52
-36.40
-41.96
-46.16
-47.86
-46.04
-40.30
-31.08
-19.62
-7.62
3.27
12.00
18.25
22.29
24.63
25.69
25.69
24.74
22.99
20.79
18.65
17.11
16.50
16.87
17.87
18.96
19.56
19.35
18.34
16.87
15.38
14.20
13.39
12.66
11.56
9.68
6.82
3.06
-1.26
-5.65
-9.72
-13.26
-16.34
-19.27
-22.51
-26.53
-31.62
-37.78
-44.53
-50.95
-55.78
-57.63
-55.43
-48.82
-38.31
-25.29
-11.64
0.88
11.05
18.45
23.36
26.40
28.18
29.07
29.20
28.63
27.48
26.08
24.79
23.89
23.48
23.47
23.67
23.88
24.05
24.18
24.30
24.35
24.17
23.49
22.06
19.65
16.21
11.84
6.78
1.42
-3.84
-8.65
-12.81
-16.30
-19.32
-22.22
-25.40
-29.26
-34.06
-39.82
-46.22
-52.48
-57.42
-59.71
-58.19
-52.35
-42.57
-30.08
-16.59
-3.82
7.05
15.46
21.55
25.74
28.51
30.23
31.07
31.19
30.80
30.18
29.59
29.21
29.08
29.12
29.23
29.30
29.30
29.16
28.84
28.29
27.42
26.16
24.46
22.31
19.65
16.44
12.59
8.09
2.99
-2.53
-8.15
-13.51
-18.26
-22.27
-25.58
-28.53
-31.58
-35.23
-39.83
-45.36
-51.41
-57.04
-61.02
-61.99
-58.97
-51.66
-40.69
-27.53
-14.02
-1.88
7.75
14.57
18.96
21.65
23.33
24.40
24.94
24.87
24.25
23.31
22.56
22.45
23.20
24.61
26.23
27.47
27.94
27.53
26.41
24.84
23.04
21.12
19.02
16.58
13.62
9.94
5.51
0.47
-4.82
-9.89
-14.33
-17.97
-20.99
-23.81
-26.97
-30.93
-35.88
-41.66
-47.65
-52.76
-55.65
-54.99
-50.00
-40.80
-28.50
-14.95
-2.02
8.91
17.29
23.33
27.58
30.55
32.45
33.31
33.14
32.15
30.75
29.42
28.51
28.14
28.20
28.44
28.54
28.30
27.62
26.53
25.08
23.37
21.43
19.24
16.71
13.75
10.35
6.54
2.47
-1.69
-5.76
-9.64
-13.32
-16.84
-20.35
-24.01
-28.04
-32.71
-38.15
-44.26
-50.46
-55.63
-58.36
-57.37
-51.97
-42.49
-30.20
-16.87
-4.23
6.55
15.04
21.40
26.10
29.56
32.05
33.69
34.53
34.67
34.27
33.59
32.91
32.49
32.45
32.76
33.26
33.73
33.94
33.76
33.11
31.92
30.13
27.68
24.58
21.00
17.18
13.41
9.81
6.27
2.54
-1.60
-6.21
-11.06
-15.72
-19.75
-22.95
-25.47
-27.76
-30.46
-34.17
-39.19
-45.34
-51.88
-57.56
-60.82
-60.29
-55.25
-45.92
-33.47
-19.77
-6.74
4.20
12.43
18.14
22.02
24.82
27.06
28.94
30.41
31.36
31.77
31.77
31.55
31.31
31.14
31.06
31.07
31.13
31.19
31.16
30.91
30.27
29.08
27.26
24.81
21.79
18.32
14.57
10.68
6.75
2.79
-1.25
-5.45
-9.75
-14.03
-18.03
-21.55
-24.50
-27.09
-29.72
-32.95
-37.19
-42.52
-48.45
-53.92
-57.49
-57.71
-53.67
-45.29
-33.51
-19.98
-6.54
5.27
14.65
21.48
26.12
29.12
30.98
32.00
32.40
32.33
31.99
31.53
31.09
30.73
30.47
30.32
30.24
30.22
30.24
30.27
30.25
30.06
29.47
28.21
26.04
22.93
19.12
15.10
11.40
8.40
6.09
4.08
1.74
-1.44
-5.65
-10.63
-15.84
-20.61
-24.52
-27.44
-29.69
-31.84
-34.60
-38.54
-43.79
-49.93
-55.85
-59.94
-60.60
-56.73
-48.22
-36.01
-21.85
-7.73
4.75
14.66
21.88
26.72
29.66
31.15
31.51
31.02
29.99
28.76
27.65
26.83
26.35
26.08
25.85
25.53
25.07
24.52
23.92
23.27
22.43
21.25
19.54
17.23
14.37
11.10
7.64
4.09
0.53
-3.04
-6.60
-10.13
-13.51
-16.67
-19.61
-22.42
-25.25
-28.30
-31.77
-35.78
-40.23
-44.72
-48.38
-50.04
-48.55
-43.14
-33.89
-21.81
-8.65
3.73
13.84
21.02
25.42
27.67
28.48
28.27
27.22
25.36
22.88
20.18
17.86
16.45
16.18
16.89
18.09
19.17
19.68
19.46
18.66
17.51
16.20
14.75
12.99
10.74
7.90
4.52
0.77
-3.11
-6.90
-10.46
-13.75
-16.80
-19.71
-22.65
-25.87
-29.66
-34.15
-39.30
-44.70
-49.57
-52.85
-53.40
-50.37
-43.54
-33.46
-21.38
-8.92
2.40
11.58
18.27
22.73
25.46
26.99
27.67
27.67
27.06
25.96
24.57
23.16
22.01
21.32
21.12
21.29
21.60
21.79
21.70
21.28
20.62
19.77
18.70
17.28
15.26
12.51
8.96
4.77
0.14
-4.60
-9.20
-13.45
-17.32
-20.88
-24.37
-28.15
-32.58
-37.88
-44.00
-50.42
-56.20
-60.14
-61.01
-57.96
-50.80
-40.11
-27.13
-13.40
-0.47
10.54
18.97
24.71
28.04
29.48
29.68
29.28
28.79
28.47
28.36
28.37
28.40
28.39
28.38
28.42
28.52
28.59
28.45
27.92
26.91
25.45
23.62
21.53
19.22
16.61
13.57
9.92
5.58
0.62
-4.67
-9.86
-14.56
-18.52
-21.80
-24.69
-27.58
-30.82
-34.64
-39.14
-44.28
-49.75
-54.87
-58.57
-59.53
-56.60
-49.34
-38.25
-24.83
-11.06
1.24
10.93
17.76
22.19
24.98
26.82
28.15
29.11
29.76
30.10
30.22
30.20
30.13
30.05
29.98
29.96
30.01
30.21
30.52
30.79
30.78
30.21
28.87
26.68
23.72
20.18
16.32
12.33
8.33
4.42
0.56
-3.26
-7.07
-10.86
-14.57
-18.14
-21.57
-24.95
-28.60
-32.99
-38.46
-45.04
-52.13
-58.44
-62.30
-62.20
-57.33
-47.98
-35.54
-21.92
-9.04
1.80
10.09
16.00
20.02
22.69
24.38
25.25
25.41
25.01
24.28
23.52
22.97
22.79
22.98
23.46
24.03
24.52
24.83
24.91
24.80
24.59
24.25
23.70
22.73
21.10
18.62
15.24
11.13
6.61
2.02
-2.39
-6.61
-10.73
-14.89
-19.17
-23.60
-28.21
-33.16
-38.62
-44.54
-50.44
-55.23
-57.45
-55.79
-49.64
-39.45
-26.66
-13.23
-0.96
8.98
16.26
21.14
24.14
25.72
26.12
25.48
24.00
21.97
19.85
18.12
17.16
17.10
17.81
18.89
19.85
20.34
20.19
19.56
18.78
18.13
17.66
17.11
15.99
13.84
10.42
5.89
0.74
-4.47
-9.30
-13.65
-17.72
-21.91
-26.60
-32.01
-38.16
-44.84
-51.58
-57.60
-61.80
-62.93
-60.02
-52.71
-41.61
-28.20
-14.36
-1.86
8.22
15.64
20.85
24.53
27.23
29.16
30.25
30.40
29.72
28.58
27.57
27.23
27.74
28.90
30.16
30.92
30.79
29.79
28.20
26.40
24.62
22.83
20.83
18.35
15.24
11.49
7.17
2.39
-2.65
-7.81
-12.84
-17.54
-21.74
-25.51
-29.10
-32.95
-37.48
-42.87
-48.87
-54.60
-58.77
-60.01
-57.36
-50.66
-40.61
-28.52
-15.90
-4.03
6.24
14.50
20.69
24.91
27.46
28.78
29.36
29.69
30.09
30.67
31.32
31.90
32.29
32.49
32.55
32.58
32.64
32.75
32.87
32.87
32.52
31.56
29.79
27.17
23.81
20.04
16.16
12.41
8.82
5.23
1.45
-2.63
-6.99
-11.51
-15.99
-20.36
-24.61
-28.90
-33.43
-38.46
-44.19
-50.59
-57.21
-63.04
-66.63
-66.44
-61.53
-51.94
-38.89
-24.41
-10.61
0.94
9.70
15.95
20.46
23.96
26.84
29.26
31.21
32.80
34.23
35.77
37.50
39.35
41.05
42.25
42.74
42.49
41.70
40.69
39.72
38.82
37.79
36.19
33.62
29.93
25.33
20.38
15.74
11.86
8.77
6.08
3.21
-0.33
-4.67
-9.50
-14.25
-18.41
-21.73
-24.37
-26.75
-29.35
-32.56
-36.61
-41.58
-47.33
-53.50
-59.29
-63.47
-64.65
-61.70
-54.26
-42.98
-29.46
-15.65
-3.31
6.50
13.56
18.30
21.44
23.62
25.19
26.23
26.66
26.48
25.90
25.26
24.98
25.32
26.28
27.60
28.89
29.78
30.00
29.54
28.50
27.06
25.35
23.40
21.10
18.31
14.90
10.87
6.39
1.76
-2.73
-6.87
-10.60
-13.97
-17.09
-20.11
-23.16
-26.50
-30.41
-35.12
-40.60
-46.30
-51.15
-53.75
-52.80
-47.63
-38.51
-26.65
-13.81
-1.71
8.45
16.20
21.69
25.36
27.59
28.57
28.36
27.14
25.28
23.33
21.87
21.26
21.52
22.38
23.34
23.99
24.04
23.51
22.60
21.61
20.70
19.85
18.81
17.20
14.71
11.19
6.76
1.72
-3.52
-8.59
-13.20
-17.18
-20.58
-23.62
-26.70
-30.33
-34.93
-40.62
-46.96
-52.92
-57.08
-57.95
-54.53
-46.70
-35.33
-22.08
-8.90
2.60
11.51
17.75
21.77
24.25
25.75
26.60
26.94
26.85
26.50
26.06
25.73
25.67
25.95
26.52
27.24
27.86
28.11
27.78
26.77
25.15
23.13
20.90
18.60
16.23
13.65
10.74
7.41
3.66
-0.43
-4.68
-8.96
-13.10
-16.96
-20.50
-23.81
-27.17
-31.03
-35.81
-41.75
-48.61
-55.47
-60.91
-63.27
-61.25
-54.38
-43.26
-29.40
-14.76
-1.16
10.21
18.91
25.07
29.16
31.66
32.94
33.31
33.07
32.55
32.04
31.74
31.63
31.54
31.27
30.65
29.79
28.94
28.36
28.15
28.07
27.67
26.52
24.40
21.44
18.02
14.47
10.98
7.44
3.63
-0.57
-5.16
-9.90
-14.52
-18.76
-22.54
-25.89
-29.00
-32.20
-35.89
-40.45
-46.01
-52.19
-58.04
-62.09
-62.83
-59.20
-51.03
-39.20
-25.37
-11.48
0.83
10.60
17.66
22.37
25.35
27.15
28.15
28.60
28.69
28.61
28.53
28.56
28.69
28.84
28.92
28.90
28.88
28.98
29.27
29.65
29.87
29.56
28.47
26.48
23.68
20.27
16.42
12.27
7.89
3.35
-1.25
-5.80
-10.20
-14.37
-18.22
-21.75
-24.96
-28.01
-31.23
-35.08
-39.94
-45.84
-52.26
-57.99
-61.42
-61.06
-56.09
-46.72
-34.16
-20.23
-6.79
4.79
13.86
20.38
24.73
27.35
28.65
28.91
28.41
27.42
26.25
25.15
24.31
23.83
23.69
23.84
24.14
24.42
24.49
24.20
23.49
22.42
21.12
19.69
18.12
16.26
13.87
10.74
6.81
2.28
-2.48
-7.05
-11.09
-14.49
-17.38
-20.10
-23.03
-26.58
-30.97
-36.22
-42.06
-47.83
-52.53
-54.92
-53.92
-48.95
-40.21
-28.79
-16.26
-4.26
5.95
13.77
19.19
22.59
24.40
24.98
24.56
23.36
21.66
19.89
18.46
17.77
17.93
18.78
19.89
20.75
21.02
20.62
19.83
18.99
18.32
17.70
16.71
14.82
11.60
7.07
1.61
-4.06
-9.24
-13.44
-16.64
-19.16
-21.61
-24.66
-28.77
-34.13
-40.40
-46.86
-52.30
-55.38
-54.89
-50.13
-41.32
-29.52
-16.45
-3.96
6.50
14.17
19.09
21.84
23.13
23.56
23.49
23.03
22.26
21.35
20.47
19.90
19.77
20.09
20.70
21.35
21.80
21.94
21.76
21.30
20.58
19.47
17.72
15.03
11.21
6.36
0.80
-4.97
-10.42
-15.17
-19.13
-22.43
-25.49
-28.84
-33.03
-38.35
-44.68
-51.23
-56.61
-59.18
-57.61
-51.42
-41.20
-28.51
-15.27
-3.18
6.74
14.27
19.79
23.88
27.00
29.39
31.07
32.00
32.24
32.04
31.69
31.51
31.58
31.78
31.79
31.27
30.03
28.11
25.79
23.42
21.27
19.36
17.56
15.51
12.89
9.52
5.40
0.76
-4.09
-8.83
-13.23
-17.25
-21.00
-24.79
-29.02
-34.13
-40.39
-47.73
-55.54
-62.62
-67.44
-68.45
-64.66
-55.99
-43.38
-28.54
-13.47
0.18
11.39
19.94
26.14
30.59
33.83
36.23
37.97
39.12
39.69
39.77
39.45
38.90
38.24
37.60
37.01
36.44
35.83
35.09
34.12
32.81
31.08
28.90
26.25
23.24
19.97
16.55
13.03
9.35
5.48
1.34
-3.06
-7.69
-12.44
-17.15
-21.62
-25.72
-29.46
-33.09
-37.08
-41.98
-48.13
-55.28
-62.45
-68.02
-70.18
-67.58
-59.86
-47.87
-33.38
-18.55
-5.19
5.61
13.63
19.31
23.32
26.29
28.64
30.59
32.23
33.53
34.46
34.96
35.03
34.72
34.18
33.59
33.18
33.08
33.31
33.71
34.00
33.85
33.00
31.29
28.80
25.67
22.07
18.18
14.06
9.78
5.39
0.93
-3.51
-7.90
-12.18
-16.31
-20.23
-23.95
-27.60
-31.52
-36.17
-41.90
-48.73
-56.01
-62.40
-66.19
-65.78
-60.33
-50.09
-36.42
-21.36
-6.96
5.23
14.53
21.00
25.19
27.78
29.30
30.10
30.40
30.36
30.13
29.85
29.68
29.68
29.93
30.41
31.04
31.66
32.03
31.91
31.12
29.57
27.29
24.40
21.09
17.56
13.98
10.43
6.85
3.17
-0.70
-4.75
-8.89
-13.02
-17.00
-20.81
-24.46
-28.03
-31.63
-35.47
-39.80
-44.86
-50.53
-56.14
-60.36
-61.55
-58.33
-50.21
-37.87
-23.00
-7.77
5.91
16.88
24.87
30.26
33.71
35.78
36.86
37.15
36.83
36.14
35.31
34.53
33.88
33.34
32.86
32.46
32.25
32.29
32.56
32.85
32.78
31.96
30.15
27.35
23.83
19.98
16.08
12.30
8.57
4.70
0.50
-4.07
-8.94
-13.85
-18.54
-22.78
-26.53
-29.90
-33.20
-36.83
-41.20
-46.62
-53.08
-60.07
-66.41
-70.44
-70.45
-65.30
-54.94
-40.58
-24.34
-8.61
4.71
14.72
21.52
25.85
28.61
30.44
31.65
32.34
32.60
32.62
32.68
32.95
33.42
33.91
34.15
34.02
33.65
33.29
33.19
33.36
33.50
33.10
31.74
29.22
25.75
21.86
18.11
14.82
11.95
9.03
5.55
1.17
-4.09
-9.76
-15.21
-19.90
-23.69
-26.85
-30.00
-33.78
-38.71
-44.94
-52.13
-59.43
-65.54
-68.87
-67.99
-62.15
-51.54
-37.51
-22.09
-7.42
4.88
14.10
20.43
24.54
27.20
28.92
29.95
30.37
30.28
29.83
29.22
28.56
27.91
27.29
26.77
26.51
26.64
27.20
28.03
28.77
29.05
28.60
27.36
25.40
22.85
19.74
16.00
11.55
6.43
0.89
-4.68
-9.85
-14.30
-17.96
-20.97
-23.60
-26.23
-29.26
-33.12
-38.13
-44.37
-51.43
-58.25
-63.29
-64.88
-61.79
-53.70
-41.45
-26.83
-12.03
1.03
11.18
18.15
22.42
24.74
25.76
25.83
25.07
23.56
21.56
19.54
18.08
17.64
18.36
19.95
21.84
23.37
24.08
23.80
22.68
21.03
19.17
17.22
15.12
12.67
9.60
5.82
1.44
-3.24
-7.81
-11.93
-15.52
-18.77
-22.12
-26.12
-31.19
-37.48
-44.69
-52.01
-58.16
-61.68
-61.25
-56.09
-46.36
-33.13
-18.18
-3.52
9.16
18.89
25.49
29.39
31.34
32.04
32.01
31.52
30.69
29.63
28.47
27.39
26.54
26.04
25.82
25.76
25.63
25.26
24.57
23.57
22.34
20.92
19.26
17.27
14.87
11.98
8.60
4.79
0.61
-3.85
-8.40
-12.81
-16.86
-20.41
-23.50
-26.41
-29.56
-33.36
-38.10
-43.83
-50.24
-56.60
-61.73
-64.20
-62.68
-56.41
-45.64
-31.64
-16.43
-2.11
9.74
18.46
24.25
27.84
30.06
31.50
32.42
32.81
32.66
32.06
31.24
30.51
30.18
30.35
30.96
31.77
32.48
32.84
32.65
31.86
30.44
28.38
25.67
22.36
18.53
14.30
9.75
4.92
-0.19
-5.48
-10.78
-15.72
-19.97
-23.34
-25.92
-28.16
-30.65
-34.03
-38.74
-44.83
-51.86
-58.82
-64.24
-66.55
-64.49
-57.60
-46.48
-32.68
-18.26
-5.15
5.40
13.02
18.13
21.48
23.76
25.35
26.27
26.42
25.83
24.76
23.66
22.95
22.80
23.08
23.39
23.40
22.99
22.28
21.53
20.86
20.18
19.11
17.21
14.10
9.75
4.40
-1.40
-7.04
-11.97
-15.94
-19.06
-21.76
-24.66
-28.35
-33.21
-39.26
-46.13
-53.12
-59.16
-62.99
-63.40
-59.46
-50.97
-38.61
-23.93
-8.92
4.55
15.27
22.91
27.86
30.88
32.60
33.37
33.26
32.32
30.76
29.06
27.72
27.09
27.23
27.86
28.54
28.92
28.84
28.40
27.82
27.23
26.59
25.61
23.80
20.73
16.25
10.53
4.08
-2.40
-8.30
-13.37
-17.72
-21.83
-26.32
-31.77
-38.48
-46.35
-54.72
-62.42
-67.88
-69.53
-66.25
-57.80
-45.07
-29.84
-14.33
-0.45
10.62
18.65
24.15
27.89
30.53
32.43
33.66
34.18
34.06
33.50
32.83
32.42
32.53
33.24
34.37
35.62
36.62
37.04
36.66
35.37
33.16
30.11
26.37
22.11
17.53
12.75
7.83
2.77
-2.37
-7.47
-12.32
-16.71
-20.60
-24.16
-27.78
-31.95
-37.07
-43.37
-50.68
-58.47
-65.67
-70.90
-72.65
-69.73
-61.69
-49.12
-33.60
-17.23
-2.05
10.58
20.22
27.26
32.53
36.76
40.35
43.28
45.43
46.75
47.39
47.65
47.75
47.73
47.40
46.55
45.11
43.22
41.19
39.22
37.35
35.36
32.92
29.81
26.00
21.67
17.12
12.60
8.26
4.02
-0.26
-4.75
-9.53
-14.49
-19.36
-23.82
-27.59
-30.62
-33.11
-35.53
-38.49
-42.56
-48.10
-55.03
-62.62
-69.55
-74.00
-74.20
-69.01
-58.37
-43.54
-26.66
-10.16
4.03
14.89
22.44
27.36
30.60
32.93
34.69
35.96
36.61
36.65
36.26
35.77
35.56
35.83
36.54
37.32
37.77
37.56
36.67
35.31
33.79
32.26
30.57
28.41
25.44
21.61
17.19
12.65
8.43
4.64
1.10
-2.54
-6.56
-11.04
-15.75
-20.37
-24.59
-28.32
-31.75
-35.38
-39.76
-45.27
-51.70
-58.08
-62.79
-63.94
-60.16
-51.13
-37.83
-22.18
-6.43
7.60
18.85
27.04
32.43
35.51
36.71
36.47
35.15
33.10
30.65
28.12
25.73
23.74
22.30
21.48
21.17
21.10
20.97
20.54
19.74
18.66
17.37
15.85
13.92
11.33
7.88
3.59
-1.31
-6.41
-11.29
-15.66
-19.46
-22.82
-26.04
-29.56
-33.78
-39.01
-45.32
-52.30
-59.08
-64.37
-66.72
-64.91
-58.39
-47.45
-33.26
-17.59
-2.33
10.97
21.36
28.57
32.83
34.64
34.56
33.10
30.72
27.92
25.18
22.92
21.40
20.67
20.56
20.79
21.11
21.31
21.36
21.22
20.85
20.09
18.70
16.39
12.97
8.36
2.74
-3.52
-9.88
-15.76
-20.71
-24.56
-27.58
-30.40
-33.91
-38.90
-45.67
-53.75
-61.78
-67.82
-69.91
-66.76
-58.18
-45.20
-29.71
-13.94
0.25
11.72
20.21
26.06
29.99
32.62
34.34
35.27
35.41
34.81
33.70
32.45
31.37
30.52
29.74
28.73
27.28
25.51
23.81
22.59
22.05
21.95
21.65
20.43
17.79
13.64
8.36
2.55
-3.16
-8.33
-12.84
-16.88
-20.92
-25.48
-31.05
-37.85
-45.75
-54.05
-61.55
-66.70
-67.94
-64.22
-55.42
-42.48
-27.22
-11.82
1.81
12.60
20.39
25.76
29.48
32.15
33.93
34.70
34.35
33.01
31.11
29.27
28.05
27.71
28.14
28.96
29.81
30.40
30.65
30.56
30.16
29.38
28.08
26.11
23.35
19.76
15.39
10.39
4.99
-0.55
-5.97
-11.09
-15.88
-20.42
-24.89
-29.51
-34.54
-40.23
-46.84
-54.38
-62.41
-69.82
-74.93
-75.92
-71.49
-61.42
-46.79
-29.74
-12.69
2.35
14.28
22.95
28.85
32.62
34.84
35.85
35.90
35.28
34.33
33.40
32.80
32.65
32.91
33.44
34.04
34.55
34.87
34.91
34.58
33.76
32.32
30.19
27.38
24.03
20.34
16.54
12.73
8.89
4.91
0.66
-3.96
-8.90
-14.01
-19.06
-23.81
-28.13
-32.07
-35.90
-40.18
-45.52
-52.31
-60.36
-68.59
-75.23
-78.21
-75.87
-67.64
-54.22
-37.38
-19.37
-2.27
12.47
24.09
32.43
37.80
40.71
41.85
41.95
41.62
41.24
40.99
40.80
40.58
40.32
40.05
39.90
39.86
39.83
39.59
38.94
37.70
35.85
33.41
30.41
26.92
22.98
18.69
14.16
9.48
4.70
-0.13
-4.97
-9.74
-14.34
-18.67
-22.73
-26.66
-30.73
-35.26
-40.60
-46.94
-54.23
-61.97
-69.12
-74.15
-75.32
-71.32
-61.73
-47.39
-30.20
-12.61
3.23
15.93
25.13
31.25
35.07
37.24
38.14
37.86
36.52
34.37
31.89
29.66
28.21
27.76
28.21
29.13
30.04
30.54
30.49
29.97
29.15
28.15
26.87
25.10
22.54
19.00
14.50
9.27
3.68
-1.85
-7.02
-11.68
-15.80
-19.55
-23.22
-27.17
-31.74
-37.24
-43.72
-50.85
-57.81
-63.25
-65.56
-63.29
-55.71
-43.20
-27.24
-10.08
5.90
18.93
28.20
33.87
36.70
37.55
37.03
35.44
32.88
29.57
25.97
22.76
20.59
19.86
20.48
21.91
23.40
24.35
24.42
23.67
22.36
20.75
19.01
17.13
15.02
12.54
9.52
5.85
1.43
-3.73
-9.45
-15.34
-20.99
-26.08
-30.53
-34.58
-38.70
-43.42
-49.12
-55.80
-62.93
-69.41
-73.67
-74.08
-69.44
-59.49
-45.14
-28.29
-11.31
3.73
15.56
23.89
29.18
32.22
33.69
34.06
33.57
32.51
31.24
30.20
29.74
29.97
30.69
31.54
32.15
32.31
32.01
31.35
30.44
29.28
27.74
25.66
22.89
19.34
14.99
9.86
4.08
-2.04
-8.08
-13.58
-18.25
-22.10
-25.47
-28.96
-33.22
-38.75
-45.73
-53.85
-62.23
-69.44
-73.73
-73.49
-67.74
-56.63
-41.52
-24.61
-8.22
5.83
16.69
24.44
29.71
33.31
35.84
37.66
38.96
39.82
40.38
40.74
40.99
41.18
41.28
41.27
41.15
40.92
40.51
39.87
38.89
37.37
35.14
32.03
28.03
23.29
18.06
12.66
7.23
1.80
-3.68
-9.18
-14.57
-19.59
-24.05
-27.96
-31.64
-35.62
-40.49
-46.66
-54.22
-62.74
-71.25
-78.25
-81.98
-80.81
-73.86
-61.39
-44.89
-26.65
-9.10
5.89
17.43
25.57
31.01
34.60
36.96
38.46
39.26
39.50
39.38
39.17
39.07
39.25
39.69
40.25
40.78
41.11
41.13
40.81
40.10
38.92
37.16
34.70
31.48
27.61
23.29
18.69
13.91
8.87
3.40
-2.58
-8.98
-15.46
-21.62
-27.12
-31.85
-35.97
-39.92
-44.28
-49.63
-56.28
-64.04
-71.93
-78.17
-80.63
-77.52
-68.13
-53.31
-35.21
-16.66
-0.14
12.89
22.16
28.32
32.36
35.04
36.77
37.62
37.60
36.86
35.72
34.57
33.75
33.46
33.64
34.14
34.69
35.07
35.12
34.76
34.00
32.81
31.15
28.91
26.07
22.58
18.50
13.84
8.64
2.97
-3.11
-9.45
-15.78
-21.79
-27.21
-31.92
-36.17
-40.47
-45.52
-51.85
-59.50
-67.68
-74.79
-78.76
-77.69
-70.49
-57.38
-39.97
-20.78
-2.52
12.65
23.60
30.33
33.66
34.80
34.83
34.45
33.99
33.49
32.96
32.48
32.22
32.39
33.03
33.96
34.83
35.29
35.04
34.02
32.36
30.32
28.14
25.94
23.63
20.97
17.68
13.57
8.67
3.30
-2.09
-7.10
-11.50
-15.41
-19.15
-23.14
-27.73
-33.21
-39.77
-47.46
-56.03
-64.68
-71.93
-75.95
-75.04
-68.35
-56.32
-40.57
-23.46
-7.25
6.57
17.44
25.60
31.56
35.82
38.61
40.04
40.21
39.39
38.04
36.68
35.77
35.61
36.24
37.38
38.58
39.27
39.04
37.71
35.38
32.39
29.07
25.56
21.79
17.53
12.56
6.85
0.62
-5.74
-11.83
-17.34
-22.22
-26.62
-30.88
-35.42
-40.70
-47.08
-54.60
-62.73
-70.28
-75.47
-76.48
-71.95
-61.63
-46.57
-28.86
-10.99
4.86
17.32
26.04
31.43
34.26
35.29
35.14
34.24
32.91
31.43
30.15
29.34
29.25
29.96
31.30
32.94
34.42
35.35
35.56
35.08
34.13
32.83
31.11
28.65
25.02
19.94
13.46
6.05
-1.52
-8.44
-14.27
-18.97
-22.98
-26.96
-31.64
-37.51
-44.79
-53.22
-62.08
-70.09
-75.58
-76.86
-72.71
-62.92
-48.49
-31.31
-13.75
2.19
15.22
24.98
31.74
36.03
38.36
39.14
38.62
37.11
35.03
32.84
30.96
29.64
28.87
28.40
27.88
27.03
25.76
24.28
22.93
21.97
21.37
20.74
19.38
16.68
12.27
6.37
-0.40
-7.13
-13.07
-17.83
-21.53
-24.79
-28.43
-33.20
-39.55
-47.37
-55.90
-63.83
-69.40
-70.95
-67.27
-58.17
-44.60
-28.44
-11.96
2.83
14.67
23.22
28.81
32.05
33.49
33.49
32.31
30.28
27.88
25.70
24.20
23.60
23.71
24.14
24.40
24.20
23.56
22.78
22.15
21.72
21.16
19.83
17.07
12.52
6.43
-0.51
-7.31
-13.19
-17.85
-21.55
-24.95
-28.85
-33.97
-40.70
-48.89
-57.71
-65.70
-70.89
-71.45
-66.25
-55.46
-40.58
-23.92
-7.91
5.76
16.38
24.11
29.50
32.99
34.83
35.11
34.04
32.08
29.91
28.16
27.22
27.07
27.32
27.50
27.20
26.38
25.29
24.27
23.52
22.88
21.81
19.65
15.95
10.67
4.29
-2.44
-8.82
-14.41
-19.24
-23.71
-28.48
-34.20
-41.39
-50.11
-59.74
-68.84
-75.37
-77.23
-72.96
-62.45
-47.05
-29.18
-11.57
3.66
15.46
23.89
29.56
33.27
35.56
36.75
37.08
36.86
36.49
36.30
36.39
36.58
36.54
35.97
34.77
33.12
31.29
29.59
28.11
26.66
24.88
22.33
18.69
13.84
8.00
1.60
-4.84
-10.83
-16.15
-20.91
-25.64
-31.04
-37.84
-46.36
-56.27
-66.47
-75.17
-80.32
-80.18
-73.95
-62.03
-46.02
-28.20
-10.89
4.19
16.22
25.18
31.53
35.80
38.38
39.56
39.59
38.83
37.78
36.80
36.08
35.53
34.85
33.77
32.20
30.32
28.51
27.15
26.28
25.59
24.42
21.98
17.80
11.92
4.94
-2.26
-8.85
-14.39
-19.00
-23.21
-27.81
-33.52
-40.80
-49.56
-58.99
-67.60
-73.37
-74.34
-69.25
-58.12
-42.34
-24.30
-6.62
8.68
20.56
29.01
34.57
37.86
39.24
38.89
37.00
34.01
30.69
27.89
26.20
25.78
26.27
27.05
27.56
27.54
27.07
26.39
25.64
24.71
23.23
20.66
16.62
11.01
4.15
-3.30
-10.56
-17.00
-22.37
-26.93
-31.44
-36.85
-43.96
-53.02
-63.42
-73.68
-81.71
-85.30
-82.89
-74.01
-59.58
-41.66
-22.85
-5.46
9.05
20.30
28.71
34.98
39.62
42.78
44.38
44.39
43.15
41.32
39.66
38.69
38.49
38.65
38.63
38.04
36.84
35.37
34.02
32.95
31.80
29.82
26.18
20.36
12.52
3.43
-5.78
-14.07
-20.90
-26.43
-31.31
-36.52
-42.93
-51.01
-60.60
-70.74
-79.74
-85.51
-86.09
-80.28
-68.15
-51.16
-31.68
-12.31
4.86
18.80
29.45
37.33
43.04
46.97
49.14
49.61
48.59
46.60
44.36
42.48
41.21
40.44
39.83
39.05
38.06
36.99
36.07
35.35
34.59
33.29
30.84
26.79
21.00
13.75
5.67
-2.44
-9.86
-16.16
-21.40
-26.13
-31.18
-37.50
-45.73
-55.93
-67.27
-78.04
-85.92
-88.59
-84.46
-73.31
-56.47
-36.42
-16.08
2.12
16.84
27.95
36.12
42.27
47.05
50.72
53.17
54.22
53.92
52.57
50.66
48.75
47.22
46.21
45.60
45.10
44.46
43.50
42.19
40.62
38.81
36.63
33.79
29.91
24.67
17.99
10.11
1.65
-6.63
-14.06
-20.22
-25.17
-29.40
-33.65
-38.71
-45.22
-53.49
-63.28
-73.64
-82.90
-88.92
-89.59
-83.52
-70.67
-52.51
-31.61
-10.91
7.14
21.22
31.15
37.63
41.67
44.10
45.38
45.65
44.92
43.32
41.24
39.24
37.90
37.53
38.10
39.27
40.57
41.59
42.12
42.16
41.78
40.92
39.37
36.74
32.65
26.91
19.61
11.22
2.41
-6.07
-13.69
-20.22
-25.86
-31.02
-36.25
-42.06
-48.86
-56.83
-65.74
-74.75
-82.30
-86.37
-84.96
-76.87
-62.28
-42.87
-21.42
-0.92
16.33
29.23
37.91
43.25
46.24
47.62
47.71
46.61
44.47
41.71
38.94
36.88
36.01
36.46
37.90
39.73
41.24
41.91
41.57
40.40
38.72
36.85
34.80
32.27
28.76
23.84
17.42
9.85
1.86
-5.73
-12.32
-17.72
-22.19
-26.32
-30.81
-36.28
-43.13
-51.44
-60.85
-70.42
-78.60
-83.45
-83.08
-76.28
-63.12
-45.07
-24.65
-4.72
12.41
25.50
34.42
39.78
42.42
42.93
41.72
39.16
35.78
32.39
29.80
28.59
28.88
30.27
32.04
33.51
34.26
34.16
33.40
32.23
30.83
29.15
26.95
23.86
19.53
13.83
6.91
-0.69
-8.30
-15.22
-21.06
-25.81
-29.89
-33.94
-38.72
-44.79
-52.28
-60.73
-68.99
-75.35
-77.94
-75.21
-66.54
-52.56
-34.99
-16.19
1.56
16.59
28.07
35.91
40.41
42.00
41.14
38.33
34.30
29.94
26.17
23.72
22.88
23.46
24.80
26.15
26.87
26.74
25.96
24.98
24.14
23.35
22.07
19.54
15.17
8.89
1.24
-6.82
-14.30
-20.63
-25.83
-30.48
-35.44
-41.53
-49.23
-58.40
-68.17
-76.95
-82.75
-83.63
-78.30
-66.60
-49.68
-29.75
-9.46
8.78
23.35
33.65
39.95
42.98
43.48
42.09
39.25
35.44
31.27
27.42
24.56
23.02
22.71
23.20
23.97
24.60
24.97
25.11
25.03
24.53
23.18
20.42
15.84
9.44
1.66
-6.69
-14.69
-21.66
-27.36
-32.11
-36.72
-42.17
-49.31
-58.41
-68.84
-78.94
-86.37
-88.68
-84.12
-72.32
-54.54
-33.37
-11.89
7.22
22.31
32.99
39.75
43.48
44.98
44.83
43.45
41.26
38.72
36.32
34.37
32.96
31.90
30.94
29.96
28.98
28.21
27.85
27.86
27.83
27.07
24.78
20.42
13.97
5.99
-2.56
-10.70
-17.81
-23.84
-29.29
-34.96
-41.63
-49.82
-59.60
-70.39
-80.86
-89.03
-92.69
-90.00
-80.22
-64.09
-43.72
-22.04
-1.88
14.81
27.26
35.74
41.08
44.14
45.57
45.70
44.76
43.05
40.95
38.91
37.27
36.08
35.18
34.29
33.22
31.98
30.78
29.73
28.74
27.34
24.82
20.56
14.34
6.52
-2.09
-10.48
-17.91
-24.14
-29.60
-35.19
-41.89
-50.49
-61.07
-72.77
-83.78
-91.63
-93.87
-88.90
-76.55
-58.30
-36.82
-15.14
4.24
19.91
31.55
39.62
44.77
47.60
48.54
47.98
46.41
44.38
42.43
40.87
39.74
38.86
37.97
36.87
35.52
34.07
32.72
31.54
30.27
28.32
24.94
19.59
12.24
3.51
-5.59
-14.04
-21.24
-27.31
-32.98
-39.34
-47.38
-57.62
-69.81
-82.72
-94.23
-101.65
-102.49
-95.23
-80.06
-58.98
-35.18
-12.06
7.81
23.27
34.50
42.52
48.43
52.92
56.15
57.97
58.24
57.16
55.26
53.26
51.75
51.02
50.86
50.83
50.39
49.19
47.21
44.70
41.93
39.00
35.66
31.38
25.59
18.00
8.79
-1.32
-11.29
-20.16
-27.40
-33.13
-38.03
-43.14
-49.44
-57.66
-67.98
-79.84
-91.88
-102.02
-107.78
-107.00
-98.57
-82.93
-62.07
-38.85
-16.22
3.70
19.96
32.66
42.46
50.06
55.96
60.32
63.17
64.60
64.82
64.18
63.08
61.87
60.82
60.09
59.69
59.57
59.55
59.38
58.72
57.20
54.50
50.47
45.18
38.95
32.28
25.65
19.34
13.30
7.23
0.71
-6.53
-14.42
-22.54
-30.21
-36.89
-42.32
-46.74
-50.90
-55.84
-62.60
-71.77
-83.07
-95.04
-105.16
-110.51
-108.65
-98.51
-80.90
-58.31
-34.01
-11.06
8.55
24.11
36.01
45.04
51.96
57.13
60.69
62.63
63.13
62.62
61.67
60.83
60.42
60.38
60.40
60.01
58.95
57.17
54.93
52.54
50.15
47.63
44.52
40.25
34.39
26.90
18.18
8.97
0.08
-7.94
-14.97
-21.39
-27.87
-35.07
-43.37
-52.72
-62.65
-72.55
-81.89
-90.46
-98.50
-106.54
-115.33
-125.68
-138.28
-153.41
-170.72
-188.93
-205.82
-218.61
-224.68
-222.43
-211.88
-194.68
-173.43
-150.67
-128.02
-105.78
-83.24
-59.33
-33.32
-5.13
24.61
54.90
84.66
112.92
138.92
161.98
181.49
196.90
207.76
213.89
215.51
213.27
208.14
201.19
193.24
184.68
175.44
165.16
153.51
140.52
126.52
112.22
98.42
85.81
74.69
64.98
56.22
47.70
38.83
29.23
18.94
8.40
-1.73
-10.80
-18.42
-24.65
-29.96
-35.13
-41.08
-48.65
-58.21
-69.49
-81.33
-91.63
-97.75
-97.27
-88.79
-72.62
-50.81
-26.61
-3.45
16.07
30.72
40.61
46.65
49.95
51.28
51.03
49.43
46.85
43.90
41.40
40.07
40.26
41.81
44.11
46.40
48.06
48.91
49.13
49.15
49.23
49.21
48.55
46.45
42.38
36.26
28.65
20.50
12.78
6.16
0.69
-4.07
-8.79
-14.06
-20.06
-26.50
-32.77
-38.21
-42.44
-45.53
-48.00
-50.70
-54.58
-60.39
-68.37
-77.99
-87.83
-95.63
-98.90
-95.57
-84.74
-67.18
-45.13
-21.67
0.17
18.22
31.53
40.23
45.10
47.08
46.95
45.29
42.58
39.36
36.26
33.88
32.62
32.55
33.41
34.74
36.17
37.51
38.82
40.15
41.38
42.07
41.58
39.35
35.15
29.30
22.50
15.59
9.21
3.51
-1.79
-7.20
-13.13
-19.65
-26.47
-33.05
-38.88
-43.77
-47.90
-51.80
-56.23
-61.86
-69.01
-77.36
-85.79
-92.43
-95.02
-91.61
-81.22
-64.41
-43.19
-20.54
0.54
17.83
30.31
38.15
42.19
43.48
42.82
40.72
37.56
33.71
29.76
26.38
24.20
23.57
24.45
26.40
28.78
30.94
32.46
33.16
33.05
32.21
30.60
28.15
24.77
20.48
15.36
9.53
3.07
-3.97
-11.54
-19.41
-27.21
-34.44
-40.71
-45.88
-50.30
-54.75
-60.15
-67.20
-75.88
-85.16
-93.05
-97.06
-95.00
-85.78
-69.87
-49.21
-26.64
-5.04
13.42
27.67
37.65
43.98
47.42
48.66
48.14
46.18
43.16
39.61
36.25
33.79
32.62
32.73
33.60
34.48
34.70
34.01
32.60
30.95
29.45
28.11
26.45
23.76
19.39
13.09
5.20
-3.48
-12.00
-19.60
-25.99
-31.44
-36.57
-42.20
-49.09
-57.75
-68.17
-79.67
-90.76
-99.23
-102.69
-99.21
-88.11
-70.30
-48.15
-24.72
-2.92
15.27
29.00
38.42
44.17
47.01
47.62
46.58
44.39
41.61
38.78
36.39
34.73
33.90
33.71
33.82
33.82
33.43
32.64
31.65
30.72
29.85
28.65
26.37
22.23
15.83
7.37
-2.30
-12.05
-20.89
-28.30
-34.48
-40.15
-46.30
-53.88
-63.46
-74.97
-87.50
-99.23
-107.66
-110.23
-105.13
-91.99
-72.17
-48.42
-24.04
-1.88
16.32
30.05
39.76
46.18
49.98
51.57
51.28
49.58
47.14
44.79
43.23
42.83
43.44
44.53
45.42
45.55
44.63
42.77
40.34
37.69
34.99
32.01
28.19
22.86
15.59
6.44
-3.91
-14.33
-23.77
-31.57
-37.77
-43.05
-48.50
-55.19
-63.86
-74.67
-86.94
-99.10
-108.86
-113.56
-111.01
-100.22
-81.94
-58.53
-33.32
-9.52
10.58
26.10
37.37
45.40
51.23
55.55
58.56
60.26
60.67
59.99
58.73
57.48
56.71
56.66
57.25
58.13
58.84
59.00
58.34
56.75
54.25
50.86
46.60
41.45
35.34
28.20
20.04
11.01
1.44
-8.16
-17.29
-25.50
-32.62
-38.80
-44.44
-50.18
-56.75
-64.77
-74.58
-85.96
-97.84
-108.24
-114.61
-114.42
-106.10
-89.71
-67.09
-41.43
-16.16
5.99
23.70
36.97
46.69
53.86
59.18
62.91
65.18
66.19
66.33
66.11
65.91
65.85
65.81
65.63
65.26
64.84
64.58
64.60
64.69
64.33
62.84
59.64
54.47
47.57
39.62
31.47
23.79
16.86
10.43
3.96
-3.11
-11.01
-19.54
-28.09
-35.96
-42.62
-47.99
-52.42
-56.73
-62.00
-69.32
-79.37
-91.91
-105.47
-117.29
-123.99
-122.57
-111.51
-91.51
-65.31
-36.84
-9.96
12.66
29.97
42.34
50.89
56.81
60.88
63.50
64.82
65.07
64.65
64.06
63.78
64.08
64.92
66.04
67.11
67.89
68.32
68.49
68.51
68.32
67.67
66.06
62.99
58.12
51.39
43.14
34.02
24.86
16.47
9.40
3.74
-0.90
-5.28
-10.21
-16.23
-23.29
-30.82
-37.98
-44.08
-48.87
-52.72
-56.45
-61.00
-67.20
-75.59
-86.18
-98.25
-110.13
-119.27
-122.72
-117.97
-103.98
-81.75
-54.16
-25.18
1.41
23.07
38.95
49.62
56.35
60.34
62.32
62.62
61.48
59.29
56.80
54.84
54.11
54.82
56.71
59.14
61.43
63.08
63.92
64.01
63.52
62.50
60.89
58.47
54.99
50.28
44.30
37.28
29.64
22.01
14.97
8.98
4.13
0.07
-3.79
-8.14
-13.37
-19.44
-25.92
-32.17
-37.68
-42.27
-46.22
-50.06
-54.47
-60.08
-67.46
-76.88
-88.15
-100.21
-110.95
-117.42
-116.69
-106.89
-88.10
-62.61
-34.17
-6.80
16.40
34.01
46.06
53.50
57.41
58.64
57.76
55.32
52.06
48.84
46.50
45.56
46.05
47.61
49.65
51.63
53.23
54.42
55.29
55.96
56.40
56.34
55.33
52.91
48.77
42.89
35.66
27.77
20.02
13.09
7.24
2.26
-2.49
-7.73
-14.01
-21.33
-29.24
-36.95
-43.70
-49.06
-53.04
-56.06
-58.88
-62.38
-67.46
-74.69
-83.95
-94.08
-102.85
-107.32
-104.75
-93.67
-74.54
-49.72
-22.86
2.34
23.16
38.38
48.07
53.14
54.66
53.58
50.66
46.60
42.16
38.08
34.96
33.10
32.54
33.07
34.48
36.55
39.09
41.83
44.35
46.10
46.46
44.98
41.52
36.34
30.01
23.19
16.42
9.91
3.55
-2.95
-9.87
-17.27
-24.95
-32.46
-39.31
-45.15
-49.93
-54.00
-58.15
-63.30
-70.28
-79.27
-89.37
-98.50
-103.80
-102.50
-92.93
-75.32
-51.81
-25.89
-1.25
19.28
34.36
44.01
49.12
50.81
49.94
47.11
42.80
37.58
32.32
27.90
25.08
24.17
24.98
26.82
28.89
30.48
31.23
31.16
30.50
29.48
28.12
26.19
23.26
18.95
13.04
5.64
-2.82
-11.71
-20.35
-28.21
-35.08
-41.10
-46.73
-52.60
-59.38
-67.57
-77.20
-87.68
-97.50
-104.44
-105.95
-100.04
-85.99
-64.90
-39.47
-13.24
10.49
29.47
42.88
51.05
54.88
55.32
53.19
49.26
44.37
39.52
35.66
33.41
32.79
33.30
34.12
34.55
34.28
33.46
32.54
31.86
31.40
30.62
28.67
24.78
18.60
10.43
1.13
-8.23
-16.70
-23.90
-30.08
-36.03
-42.70
-50.99
-61.37
-73.63
-86.79
-98.97
-107.65
-110.19
-104.62
-90.45
-68.98
-43.14
-16.55
7.51
26.89
40.85
49.72
54.40
55.81
54.77
52.05
48.46
44.80
41.74
39.62
38.41
37.78
37.37
36.90
36.30
35.67
35.17
34.80
34.24
32.87
29.88
24.57
16.73
6.79
-4.25
-15.16
-24.97
-33.28
-40.42
-47.33
-55.13
-64.77
-76.48
-89.45
-101.75
-110.56
-112.95
-106.77
-91.59
-68.95
-42.06
-14.79
9.42
28.42
41.64
49.71
53.82
55.14
54.54
52.63
49.92
46.91
44.11
41.87
40.31
39.25
38.37
37.42
36.40
35.50
34.95
34.71
34.28
32.79
29.25
23.04
14.19
3.45
-8.01
-18.98
-28.62
-36.76
-43.87
-50.98
-59.31
-69.87
-82.90
-97.48
-111.33
-121.16
-123.70
-116.78
-100.29
-76.39
-48.77
-21.43
2.58
21.78
36.20
46.65
54.04
58.95
61.64
62.37
61.64
60.16
58.62
57.41
56.48
55.50
54.07
52.03
49.62
47.33
45.62
44.66
44.06
42.95
40.25
35.10
27.23
17.12
5.87
-5.28
-15.34
-23.98
-31.59
-39.09
-47.66
-58.28
-71.35
-86.27
-101.23
-113.38
-119.48
-116.92
-104.69
-83.90
-57.54
-29.57
-3.62
17.93
34.41
46.45
55.25
61.87
66.75
69.82
70.88
70.05
67.98
65.68
64.18
64.01
64.94
66.16
66.65
65.77
63.45
60.23
56.84
53.72
50.80
47.39
42.56
35.56
26.20
14.97
2.93
-8.74
-19.08
-27.78
-35.13
-41.94
-49.21
-57.86
-68.50
-81.18
-95.17
-108.76
-119.30
-123.76
-119.56
-105.69
-83.22
-55.18
-25.62
1.64
24.09
40.95
52.78
60.79
66.09
69.39
71.04
71.29
70.52
69.19
67.76
66.58
65.80
65.46
65.50
65.79
66.13
66.20
65.60
63.92
60.88
56.35
50.49
43.60
36.09
28.32
20.58
12.90
5.14
-2.95
-11.53
-20.55
-29.69
-38.45
-46.38
-53.26
-59.36
-65.41
-72.48
-81.63
-93.31
-106.86
-120.16
-130.00
-132.80
-125.97
-108.89
-83.30
-52.87
-22.00
5.57
27.66
43.91
55.20
62.84
67.88
70.82
71.79
70.91
68.59
65.59
62.83
61.06
60.57
61.11
62.07
62.78
62.72
61.72
59.83
57.22
54.02
50.21
45.68
40.24
33.72
25.99
17.07
7.17
-3.26
-13.62
-23.32
-31.95
-39.48
-46.24
-52.80
-59.83
-67.98
-77.73
-89.16
-101.62
-113.41
-121.82
-123.67
-116.43
-99.32
-73.93
-43.86
-13.56
13.17
34.22
49.29
59.39
65.77
69.31
70.38
69.13
65.96
61.69
57.40
54.03
52.06
51.41
51.55
51.77
51.54
50.62
49.14
47.43
45.75
44.03
41.81
38.26
32.53
24.20
13.59
1.69
-10.06
-20.40
-28.64
-34.98
-40.28
-45.76
-52.61
-61.64
-73.08
-86.43
-100.21
-112.00
-118.79
-117.76
-107.25
-87.55
-61.04
-31.53
-3.10
21.04
39.31
51.67
59.04
62.62
63.34
61.85
58.69
54.59
50.44
47.06
44.89
43.83
43.34
42.74
41.65
40.12
38.58
37.45
36.81
36.15
34.61
31.20
25.23
16.74
6.37
-4.73
-15.34
-24.57
-32.18
-38.66
-45.07
-52.72
-62.69
-75.36
-89.99
-104.52
-115.81
-120.41
-115.63
-100.58
-76.67
-47.31
-16.88
10.68
32.83
48.81
59.19
65.13
67.70
67.60
65.34
61.50
56.93
52.62
49.36
47.42
46.51
45.95
45.02
43.40
41.26
39.10
37.34
36.01
34.51
31.89
27.19
19.92
10.32
-0.69
-11.81
-21.87
-30.24
-37.10
-43.34
-50.29
-59.28
-71.10
-85.56
-101.09
-114.92
-123.55
-123.79
-113.87
-94.13
-67.14
-36.83
-7.42
17.89
37.51
51.41
60.48
65.81
68.20
68.09
65.89
62.21
57.96
54.13
51.45
50.06
49.46
48.81
47.37
44.89
41.74
38.66
36.22
34.41
32.52
29.38
23.93
15.76
5.35
-6.11
-17.19
-26.79
-34.54
-40.84
-46.73
-53.45
-62.11
-73.31
-86.74
-100.98
-113.46
-120.94
-120.34
-109.91
-89.93
-62.91
-32.86
-3.98
20.52
39.19
52.18
60.54
65.45
67.68
67.54
65.33
61.57
57.14
53.05
50.09
48.49
47.89
47.57
46.83
45.36
43.33
41.19
39.32
37.65
35.61
32.26
26.76
18.80
8.80
-2.23
-13.03
-22.67
-30.79
-37.77
-44.57
-52.37
-62.21
-74.55
-88.86
-103.46
-115.56
-121.88
-119.54
-107.16
-85.51
-57.46
-27.16
1.27
24.78
42.06
53.34
59.72
62.42
62.38
60.19
56.42
51.82
47.36
43.93
41.98
41.34
41.29
40.98
39.86
37.95
35.73
33.78
32.27
30.74
28.20
23.61
16.37
6.69
-4.44
-15.66
-25.75
-34.13
-40.99
-47.21
-54.01
-62.57
-73.60
-86.92
-101.17
-113.80
-121.51
-121.17
-110.94
-91.12
-64.24
-34.32
-5.58
18.85
37.53
50.60
59.06
63.99
66.11
65.81
63.48
59.83
55.85
52.52
50.43
49.59
49.42
49.12
48.04
46.03
43.41
40.79
38.60
36.81
34.82
31.62
26.28
18.33
8.08
-3.46
-14.89
-24.99
-33.26
-40.05
-46.57
-54.33
-64.64
-77.93
-93.32
-108.54
-120.33
-125.24
-120.70
-105.91
-82.35
-53.38
-23.21
4.38
26.99
43.98
55.99
64.18
69.51
72.42
73.02
71.44
68.23
64.32
60.76
58.32
57.16
56.77
56.29
54.96
52.53
49.37
46.24
43.83
42.20
40.65
37.95
32.88
24.86
14.19
2.03
-10.13
-21.04
-30.13
-37.62
-44.33
-51.34
-59.66
-69.93
-82.32
-96.16
-109.81
-120.64
-125.55
-121.85
-108.31
-85.89
-57.55
-27.44
0.47
23.53
40.84
52.95
61.01
66.08
68.77
69.29
67.85
64.96
61.43
58.21
55.99
54.95
54.72
54.51
53.55
51.42
48.29
44.82
41.73
39.35
37.28
34.45
29.69
22.23
12.26
0.86
-10.41
-20.28
-28.18
-34.48
-40.20
-46.50
-54.41
-64.55
-77.00
-91.16
-105.44
-117.23
-123.33
-120.82
-108.31
-86.60
-58.69
-28.80
-0.95
22.18
39.67
52.00
60.17
64.98
66.86
66.07
63.07
58.76
54.32
50.87
48.95
48.46
48.70
48.80
48.11
46.48
44.30
42.12
40.28
38.62
36.40
32.66
26.62
18.18
7.95
-2.90
-13.12
-21.84
-28.87
-34.75
-40.60
-47.67
-57.04
-69.12
-83.25
-97.51
-108.92
-114.15
-110.49
-96.95
-74.79
-47.18
-18.29
8.09
29.48
45.08
55.37
61.33
63.86
63.49
60.65
55.94
50.39
45.25
41.58
39.87
39.90
40.81
41.56
41.48
40.40
38.69
36.83
34.98
32.75
29.31
23.79
15.76
5.52
-5.90
-17.18
-27.18
-35.39
-42.08
-48.23
-55.12
-63.96
-75.42
-89.18
-103.67
-116.12
-123.12
-121.60
-109.97
-88.87
-61.12
-30.90
-2.38
21.44
39.34
51.60
59.28
63.48
64.88
63.90
60.95
56.76
52.27
48.46
45.92
44.70
44.33
44.12
43.51
42.28
40.67
39.09
37.86
36.82
35.29
32.23
26.71
18.36
7.64
-4.27
-15.82
-25.77
-33.57
-39.69
-45.34
-52.11
-61.34
-73.65
-88.48
-103.95
-117.08
-124.39
-122.92
-111.20
-89.97
-62.04
-31.46
-2.29
22.56
41.83
55.64
64.84
70.33
72.70
72.37
69.88
66.04
61.94
58.53
56.40
55.49
55.29
55.01
54.01
52.05
49.36
46.45
43.78
41.39
38.72
34.80
28.66
19.89
8.89
-3.16
-14.75
-24.69
-32.53
-38.74
-44.46
-51.04
-59.62
-70.78
-84.19
-98.45
-111.08
-118.96
-119.09
-109.64
-90.77
-64.77
-35.44
-6.93
17.60
36.61
50.17
59.33
65.23
68.56
69.52
68.16
64.83
60.38
56.00
52.81
51.36
51.41
52.12
52.37
51.43
49.17
46.12
43.11
40.70
38.79
36.59
32.93
26.81
17.96
6.96
-4.88
-16.06
-25.51
-32.90
-38.78
-44.25
-50.58
-58.83
-69.52
-82.42
-96.26
-108.81
-117.08
-118.09
-109.83
-92.07
-66.72
-37.36
-8.15
17.41
37.29
51.10
59.58
63.91
65.09
63.84
60.73
56.43
51.84
47.92
45.36
44.29
44.24
44.33
43.71
42.00
39.39
36.55
34.16
32.44
30.85
28.28
23.57
16.10
6.20
-4.96
-15.80
-25.04
-32.19
-37.68
-42.59
-48.28
-55.89
-66.00
-78.27
-91.29
-102.58
-109.06
-107.85
-97.36
-77.98
-52.17
-23.79
3.17
25.75
42.64
54.01
60.87
64.27
64.92
63.19
59.51
54.59
49.39
44.87
41.61
39.61
38.41
37.42
36.26
34.95
33.73
32.83
32.09
30.87
28.28
23.52
16.30
7.05
-3.22
-13.29
-22.18
-29.47
-35.48
-41.10
-47.61
-56.20
-67.51
-81.07
-95.03
-106.29
-111.30
-107.17
-92.84
-69.63
-41.03
-11.53
14.75
35.20
49.10
57.19
60.88
61.47
59.79
56.32
51.49
45.91
40.42
35.79
32.51
30.57
29.59
29.05
28.60
28.08
27.48
26.65
25.19
22.53
18.12
11.79
3.96
-4.56
-12.82
-20.23
-26.86
-33.40
-40.91
-50.39
-62.32
-76.27
-90.65
-102.87
-109.75
-108.46
-97.50
-77.41
-50.79
-21.61
6.00
28.89
45.60
56.25
61.93
63.92
63.21
60.41
55.96
50.43
44.57
39.18
34.88
31.96
30.29
29.47
29.06
28.66
28.02
26.88
24.93
21.71
16.80
10.01
1.54
-7.98
-17.69
-26.78
-34.81
-41.95
-48.97
-57.06
-67.37
-80.22
-94.65
-108.07
-116.84
-117.36
-107.40
-87.16
-59.33
-28.27
1.49
26.52
45.20
57.65
64.92
68.32
68.92
67.44
64.45
60.52
56.22
52.05
48.35
45.29
42.86
41.02
39.65
38.55
37.47
36.01
33.70
30.07
24.77
17.78
9.41
0.22
-9.11
-18.08
-26.51
-34.66
-43.16
-52.78
-64.12
-77.21
-91.07
-103.57
-111.66
-112.23
-103.13
-84.22
-57.64
-27.36
2.15
27.27
46.03
58.36
65.39
68.56
69.07
67.60
64.53
60.29
55.45
50.66
46.45
43.09
40.56
38.65
37.17
35.97
34.91
33.76
32.10
29.36
24.97
18.63
10.45
1.00
-8.91
-18.47
-27.17
-35.02
-42.54
-50.70
-60.52
-72.56
-86.32
-99.93
-110.29
-113.90
-108.05
-91.96
-67.26
-37.59
-7.43
19.29
40.16
54.57
63.27
67.56
68.64
67.36
64.33
60.06
55.18
50.36
46.17
42.86
40.39
38.56
37.11
35.89
34.79
33.62
32.00
29.38
25.22
19.20
11.41
2.38
-7.11
-16.30
-24.70
-32.31
-39.61
-47.53
-57.06
-68.77
-82.23
-95.60
-105.83
-109.41
-103.65
-87.76
-63.42
-34.31
-4.97
20.67
40.31
53.55
61.35
65.19
66.32
65.44
62.81
58.62
53.24
47.39
41.90
37.51
34.64
33.23
32.85
32.76
32.24
30.72
27.93
23.87
18.74
12.72
5.96
-1.49
-9.58
-18.25
-27.46
-37.31
-48.12
-60.21
-73.50
-86.98
-98.48
-104.93
-103.33
-91.96
-71.33
-44.22
-14.93
12.11
33.70
48.62
57.37
61.43
62.30
60.91
57.65
52.72
46.57
40.07
34.26
29.99
27.67
27.06
27.49
28.15
28.26
27.29
24.97
21.22
16.18
10.10
3.28
-4.02
-11.66
-19.65
-28.12
-37.32
-47.62
-59.26
-72.23
-85.70
-97.84
-105.80
-106.53
-97.81
-79.34
-53.18
-23.27
5.82
30.28
48.03
58.97
64.31
65.74
64.63
61.82
57.73
52.66
47.06
41.53
36.73
33.12
30.91
29.91
29.68
29.64
29.17
27.73
24.94
20.61
14.75
7.57
-0.58
-9.23
-18.00
-26.58
-34.96
-43.43
-52.62
-63.29
-75.87
-89.88
-103.48
-113.60
-116.68
-109.96
-92.66
-66.56
-35.58
-4.51
22.55
43.20
57.03
65.01
68.62
69.21
67.69
64.71
60.91
56.94
53.37
50.47
48.18
46.21
44.23
42.16
40.13
38.44
37.19
36.18
34.71
31.84
26.75
19.11
9.29
-1.71
-12.62
-22.44
-30.74
-37.85
-44.76
-52.78
-63.03
-75.90
-90.50
-104.49
-114.40
-116.57
-108.44
-89.71
-62.62
-31.40
-0.81
25.30
44.99
58.26
66.26
70.41
71.73
70.69
67.56
62.88
57.57
52.78
49.47
48.06
48.23
49.14
49.79
49.43
47.88
45.46
42.74
40.14
37.56
34.35
29.53
22.36
12.68
1.21
-10.67
-21.49
-30.25
-36.83
-41.92
-46.82
-52.82
-60.94
-71.53
-84.15
-97.38
-108.86
-115.60
-114.75
-104.52
-85.07
-58.65
-29.03
-0.38
24.04
42.55
55.14
62.79
66.64
67.55
65.97
62.26
57.07
51.44
46.62
43.70
43.15
44.64
47.14
49.38
50.28
49.35
46.84
43.46
39.95
36.66
33.34
29.31
23.72
16.11
6.62
-3.97
-14.55
-24.08
-31.93
-38.15
-43.29
-48.23
-53.85
-60.87
-69.73
-80.43
-92.22
-103.40
-111.33
-113.04
-106.12
-89.80
-65.49
-36.53
-7.15
18.86
39.18
53.24
61.71
65.83
66.61
64.74
60.70
55.16
49.09
43.68
39.98
38.50
39.10
40.93
42.87
43.87
43.38
41.49
38.81
36.05
33.58
31.18
28.08
23.34
16.33
7.17
-3.30
-13.78
-23.10
-30.62
-36.42
-41.24
-46.10
-52.05
-59.85
-69.90
-81.94
-94.83
-106.47
-113.96
-114.31
-105.47
-87.22
-61.50
-32.02
-3.06
21.74
40.35
52.54
59.30
62.05
61.96
59.68
55.55
50.07
44.10
38.81
35.35
34.32
35.57
38.19
40.90
42.58
42.69
41.34
39.10
36.53
33.85
30.78
26.69
20.85
12.90
3.02
-8.03
-19.10
-29.09
-37.30
-43.71
-48.98
-54.19
-60.52
-68.89
-79.62
-92.26
-105.32
-116.40
-122.47
-120.70
-109.44
-88.97
-61.72
-31.55
-2.68
21.69
40.00
52.35
59.87
63.85
65.27
64.55
61.99
57.99
53.31
48.88
45.60
43.93
43.80
44.63
45.62
46.08
45.67
44.48
42.79
40.83
38.59
35.67
31.47
25.40
17.23
7.20
-3.93
-15.15
-25.44
-34.20
-41.31
-47.18
-52.56
-58.34
-65.44
-74.48
-85.49
-97.56
-108.66
-115.82
-115.95
-106.89
-88.36
-62.33
-32.56
-3.32
21.84
41.01
54.04
62.00
66.31
68.14
68.11
66.59
63.93
60.71
57.66
55.42
54.33
54.26
54.72
55.20
55.28
54.81
53.76
52.11
49.73
46.39
41.90
36.26
29.72
22.63
15.32
7.88
0.20
-7.90
-16.50
-25.40
-34.16
-42.20
-49.14
-54.92
-59.99
-65.17
-71.54
-80.04
-91.08
-103.92
-116.49
-125.62
-127.84
-120.61
-103.40
-78.07
-48.36
-18.60
7.60
28.27
43.16
53.12
59.34
62.72
63.87
63.23
61.41
59.17
57.28
56.24
56.17
56.82
57.76
58.61
59.18
59.46
59.57
59.54
59.13
57.84
55.06
50.35
43.76
35.82
27.46
19.52
12.47
6.19
0.07
-6.59
-14.19
-22.64
-31.38
-39.60
-46.67
-52.39
-57.18
-62.00
-68.09
-76.53
-87.71
-100.83
-113.72
-123.17
-125.76
-119.01
-102.33
-77.46
-47.90
-17.93
8.74
29.90
45.02
54.86
60.70
63.66
64.44
63.45
61.07
57.89
54.70
52.24
51.00
51.06
52.08
53.54
54.90
55.75
55.83
55.04
53.30
50.55
46.79
42.05
36.48
30.26
23.61
16.67
9.50
2.09
-5.58
-13.46
-21.38
-29.09
-36.30
-42.84
-48.80
-54.52
-60.66
-67.96
-76.94
-87.37
-97.96
-106.25
-109.24
-104.33
-90.37
-68.35
-41.21
-12.99
12.56
32.93
47.32
56.28
60.96
62.45
61.41
58.23
53.38
47.66
42.18
38.13
36.34
36.96
39.34
42.31
44.61
45.36
44.33
41.93
38.88
35.78
32.74
29.42
25.11
19.17
11.38
2.09
-7.86
-17.50
-26.03
-33.14
-39.04
-44.34
-49.84
-56.29
-64.34
-74.24
-85.73
-97.69
-108.01
-113.84
-112.34
-101.72
-82.15
-55.95
-27.01
0.50
23.33
39.96
50.66
56.72
59.73
60.87
60.67
59.33
56.98
53.95
50.83
48.32
46.96
46.96
48.08
49.75
51.25
51.97
51.52
49.82
47.02
43.40
39.15
34.34
28.81
22.29
14.56
5.62
-4.15
-14.08
-23.40
-31.54
-38.40
-44.40
-50.28
-56.93
-65.07
-75.11
-86.96
-99.78
-111.76
-120.28
-122.42
-115.86
-99.93
-75.98
-47.22
-17.74
8.78
29.99
45.27
55.33
61.50
65.01
66.62
66.66
65.28
62.72
59.47
56.23
53.67
52.26
52.03
52.65
53.51
53.95
53.55
52.18
49.90
46.90
43.30
39.09
34.16
28.31
21.40
13.46
4.69
-4.49
-13.59
-22.10
-29.76
-36.58
-42.86
-49.18
-56.19
-64.53
-74.58
-86.18
-98.31
-108.93
-115.29
-114.61
-105.06
-86.63
-61.35
-32.80
-5.05
18.61
36.42
48.33
55.39
59.06
60.50
60.42
59.16
57.04
54.49
52.07
50.28
49.38
49.37
50.02
51.01
52.07
52.96
53.41
53.02
51.37
48.12
43.25
37.05
30.06
22.78
15.49
8.12
0.41
-7.82
-16.51
-25.27
-33.51
-40.74
-46.77
-51.84
-56.59
-61.87
-68.57
-77.36
-88.25
-100.32
-111.56
-119.06
-119.88
-111.89
-94.80
-70.33
-41.87
-13.40
11.71
31.45
45.43
54.44
59.72
62.43
63.33
62.88
61.42
59.39
57.31
55.69
54.84
54.74
55.10
55.57
55.93
56.13
56.29
56.36
56.00
54.56
51.30
45.76
38.10
29.08
19.80
11.28
3.98
-2.30
-8.26
-14.70
-22.07
-30.26
-38.67
-46.45
-52.99
-58.10
-62.26
-66.50
-72.13
-80.31
-91.46
-104.79
-118.02
-127.78
-130.43
-123.33
-105.91
-80.05
-49.59
-19.03
7.78
28.75
43.61
53.41
59.68
63.64
65.99
67.03
66.98
66.23
65.30
64.67
64.61
65.01
65.55
65.91
65.91
65.67
65.38
65.17
64.84
63.89
61.60
57.32
50.85
42.59
33.43
24.51
16.70
10.25
4.73
-0.76
-7.13
-14.78
-23.45
-32.35
-40.50
-47.23
-52.53
-56.98
-61.73
-68.03
-76.92
-88.70
-102.55
-116.38
-127.07
-131.18
-126.08
-110.89
-87.00
-57.68
-27.16
0.66
23.27
39.81
50.87
57.81
62.00
64.39
65.52
65.68
65.14
64.27
63.50
63.17
63.38
63.94
64.48
64.64
64.30
63.55
62.61
61.73
60.86
59.66
57.59
54.05
48.68
41.54
33.19
24.52
16.47
9.62
3.99
-1.03
-6.36
-12.79
-20.58
-29.28
-37.97
-45.66
-51.76
-56.35
-60.14
-64.21
-69.74
-77.61
-88.10
-100.50
-112.86
-122.18
-125.06
-118.82
-102.61
-77.90
-48.18
-17.77
9.46
31.18
46.81
57.02
63.01
65.85
66.29
64.89
62.29
59.27
56.64
55.05
54.69
55.31
56.29
56.94
56.82
55.89
54.53
53.27
52.47
52.02
51.33
49.53
45.88
40.12
32.70
24.60
16.90
10.41
5.22
0.86
-3.56
-8.89
-15.52
-23.26
-31.46
-39.33
-46.23
-51.96
-56.73
-61.10
-65.88
-71.89
-79.84
-89.89
-101.30
-112.13
-119.46
-120.09
-111.65
-93.66
-67.91
-38.05
-8.44
17.26
36.95
50.33
58.37
62.48
63.84
63.18
60.93
57.56
53.77
50.42
48.26
47.56
48.05
49.01
49.71
49.68
49.00
48.13
47.53
47.30
46.99
45.76
42.75
37.59
30.57
22.61
14.88
8.28
3.15
-0.86
-4.62
-9.08
-14.88
-22.03
-29.96
-37.70
-44.40
-49.62
-53.57
-57.01
-60.94
-66.41
-74.09
-84.11
-95.67
-106.99
-115.31
-117.57
-111.24
-95.39
-71.30
-42.22
-12.40
14.17
34.90
48.97
56.98
60.23
60.05
57.44
53.17
48.02
42.88
38.61
35.88
34.89
35.43
36.94
38.85
40.78
42.58
44.21
45.58
46.37
46.07
44.18
40.44
35.03
28.51
21.63
14.99
8.79
2.82
-3.42
-10.37
-18.13
-26.38
-34.43
-41.55
-47.28
-51.64
-55.18
-58.88
-63.86
-71.01
-80.53
-91.51
-101.75
-108.14
-107.51
-97.81
-79.03
-53.49
-25.15
1.65
23.57
39.07
48.37
52.79
53.85
52.67
49.87
45.82
40.96
36.00
31.79
29.08
28.34
29.53
32.14
35.36
38.34
40.36
41.04
40.40
38.64
36.09
32.91
29.02
24.16
18.00
10.39
1.50
-8.07
-17.58
-26.33
-33.93
-40.38
-46.09
-51.63
-57.61
-64.57
-72.93
-82.82
-93.82
-104.57
-112.76
-115.53
-110.39
-96.20
-73.83
-46.16
-17.22
9.10
30.03
44.55
53.11
57.02
57.68
56.12
52.99
48.73
43.90
39.29
35.75
33.90
33.85
35.06
36.60
37.55
37.42
36.35
34.84
33.42
32.15
30.51
27.54
22.32
14.42
4.16
-7.46
-19.12
-29.62
-38.28
-45.09
-50.64
-55.95
-62.25
-70.59
-81.57
-94.79
-108.67
-120.47
-126.88
-125.04
-113.52
-93.04
-66.27
-37.13
-9.50
13.79
31.47
43.73
51.60
56.29
58.76
59.58
59.06
57.54
55.49
53.57
52.37
52.15
52.68
53.29
53.20
51.88
49.41
46.38
43.53
41.32
39.45
36.99
32.73
25.77
16.01
4.30
-7.95
-19.24
-28.63
-36.04
-42.24
-48.48
-56.09
-66.04
-78.58
-92.94
-107.26
-118.69
-124.03
-120.61
-107.28
-84.94
-56.53
-26.12
2.30
25.87
43.50
55.58
63.42
68.45
71.75
73.95
75.29
75.88
75.82
75.26
74.36
73.33
72.31
71.40
70.66
70.09
69.61
68.99
67.90
65.88
62.49
57.46
50.84
43.05
34.69
26.41
18.53
10.97
3.39
-4.62
-13.22
-22.18
-30.93
-38.77
-45.18
-50.15
-54.24
-58.52
-64.36
-72.97
-84.91
-99.47
-114.48
-126.44
-131.51
-126.67
-110.95
-85.91
-55.29
-23.69
4.80
27.72
44.53
56.12
63.91
69.13
72.51
74.33
74.83
74.39
73.57
72.98
73.06
73.95
75.44
77.11
78.51
79.29
79.29
78.52
77.01
74.82
71.87
68.05
63.22
57.25
50.14
42.06
33.36
24.59
16.35
9.07
2.87
-2.57
-7.83
-13.56
-20.12
-27.43
-34.96
-41.93
-47.73
-52.12
-55.47
-58.55
-62.38
-67.96
-76.06
-87.08
-100.69
-115.63
-129.37
-138.49
-139.44
-129.79
-109.30
-80.30
-47.05
-14.33
13.99
35.97
51.52
61.78
68.23
72.00
73.79
74.04
73.22
71.93
70.81
70.30
70.47
71.05
71.66
71.95
71.86
71.52
71.18
70.94
70.61
69.71
67.67
64.13
59.09
53.03
46.62
40.51
35.01
30.03
25.13
19.83
13.88
7.42
0.93
-5.01
-10.08
-14.35
-18.34
-22.72
-27.99
-34.20
-40.97
-47.60
-53.48
-58.37
-62.52
-66.64
-71.75
-78.94
-88.93
-101.68
-115.84
-128.69
-136.55
-135.82
-124.28
-102.12
-72.09
-38.70
-6.74
20.19
40.43
54.20
62.78
67.63
69.78
69.79
68.05
65.06
61.60
58.54
56.58
55.99
56.64
58.04
59.66
61.13
62.32
63.27
63.98
64.35
64.06
62.74
60.14
56.22
51.18
45.34
39.02
32.44
25.70
18.88
12.10
5.56
-0.50
-5.96
-10.84
-15.37
-19.89
-24.74
-30.05
-35.71
-41.40
-46.66
-51.12
-54.69
-57.69
-60.83
-65.13
-71.65
-80.98
-92.79
-105.39
-115.86
-120.64
-116.67
-102.54
-79.21
-49.88
-19.02
9.04
31.28
46.66
55.72
59.91
60.79
59.46
56.60
52.75
48.53
44.71
42.00
40.78
40.92
41.87
42.94
43.66
43.96
44.07
44.32
44.72
44.93
44.25
42.00
37.84
31.92
24.95
17.91
11.66
6.67
2.79
-0.68
-4.66
-9.94
-16.71
-24.54
-32.53
-39.65
-45.22
-49.15
-52.02
-54.87
-58.84
-64.88
-73.34
-83.72
-94.45
-103.00
-106.42
-102.23
-89.37
-68.71
-43.02
-16.09
8.40
27.90
41.43
49.32
52.65
52.57
49.97
45.51
39.76
33.44
27.42
22.56
19.57
18.77
19.97
22.58
25.76
28.68
30.73
31.68
31.54
30.50
28.67
26.01
22.31
17.33
10.89
3.07
-5.78
-15.09
-24.18
-32.48
-39.63
-45.61
-50.72
-55.53
-60.77
-67.21
-75.45
-85.55
-96.68
-106.89
-113.35
-113.09
-104.05
-86.03
-61.00
-32.58
-4.92
18.55
36.01
47.30
53.39
55.61
55.08
52.52
48.42
43.35
38.04
33.40
30.22
28.91
29.35
30.91
32.67
33.82
33.91
33.00
31.56
30.08
28.75
27.24
24.85
20.79
14.62
6.51
-2.85
-12.46
-21.44
-29.30
-36.01
-41.93
-47.70
-54.10
-61.92
-71.82
-83.84
-97.05
-109.32
-117.55
-118.59
-110.30
-92.55
-67.43
-38.70
-10.47
13.90
32.68
45.78
54.14
59.09
61.69
62.62
62.26
60.92
58.95
56.78
54.77
53.14
51.97
51.14
50.48
49.82
49.02
47.96
46.59
44.84
42.65
39.93
36.57
32.40
27.24
20.94
13.45
4.93
-4.22
-13.52
-22.49
-30.81
-38.45
-45.57
-52.52
-59.79
-67.96
-77.60
-88.98
-101.63
-113.94
-123.22
-126.27
-120.48
-104.92
-80.91
-51.71
-21.56
5.76
27.78
43.76
54.30
60.65
64.13
65.76
66.25
66.11
65.62
64.95
64.18
63.34
62.52
61.78
61.22
60.88
60.68
60.49
60.08
59.16
57.39
54.45
50.10
44.33
37.41
29.82
22.08
14.48
7.01
-0.61
-8.70
-17.37
-26.38
-35.21
-43.23
-50.06
-55.76
-60.91
-66.54
-73.81
-83.59
-95.92
-109.57
-121.90
-129.42
-128.74
-117.84
-97.00
-68.86
-37.65
-7.79
17.40
36.46
49.66
58.23
63.59
66.67
67.97
67.79
66.57
64.95
63.68
63.23
63.64
64.51
65.21
65.27
64.59
63.47
62.42
61.79
61.47
60.84
59.04
55.31
49.37
41.63
32.99
24.49
16.90
10.35
4.37
-1.84
-9.01
-17.40
-26.58
-35.70
-43.77
-50.17
-54.92
-58.76
-62.94
-68.83
-77.43
-88.97
-102.50
-115.81
-125.69
-128.74
-122.38
-105.93
-80.99
-51.02
-20.39
7.06
28.93
44.57
54.72
60.72
63.83
64.94
64.60
63.24
61.39
59.65
58.54
58.34
59.03
60.23
61.47
62.41
62.96
63.27
63.53
63.71
63.41
61.95
58.62
53.12
45.73
37.27
28.82
21.21
14.69
8.88
2.98
-3.76
-11.67
-20.46
-29.42
-37.65
-44.58
-50.04
-54.48
-58.77
-64.03
-71.30
-81.13
-93.08
-105.32
-114.85
-118.11
-112.26
-96.35
-71.88
-42.44
-12.56
13.75
34.05
47.74
55.69
59.37
60.18
59.09
56.81
53.87
50.84
48.26
46.53
45.79
45.92
46.59
47.44
48.18
48.70
48.95
48.88
48.26
46.75
44.02
39.93
34.64
28.58
22.23
15.88
9.60
3.18
-3.67
-11.00
-18.63
-26.11
-32.98
-38.97
-44.19
-49.09
-54.42
-60.99
-69.40
-79.68
-90.88
-100.93
-106.94
-105.95
-96.02
-77.14
-51.44
-22.69
4.88
27.81
44.37
54.52
59.43
60.67
59.57
56.93
53.28
49.01
44.69
40.96
38.44
37.44
37.94
39.55
41.71
43.86
45.58
46.57
46.61
45.50
43.10
39.30
34.20
28.00
21.06
13.71
6.20
-1.38
-9.03
-16.76
-24.52
-32.11
-39.31
-45.96
-52.07
-57.91
-64.01
-71.06
-79.70
-90.13
-101.70
-112.61
-120.05
-120.89
-112.80
-95.20
-69.80
-40.17
-10.64
15.07
34.74
47.97
55.65
59.22
60.04
59.13
57.19
54.82
52.52
50.70
49.59
49.13
49.12
49.30
49.53
49.76
50.05
50.34
50.42
49.92
48.37
45.39
40.91
35.13
28.51
21.53
14.48
7.39
0.10
-7.58
-15.65
-23.83
-31.63
-38.57
-44.42
-49.36
-54.01
-59.28
-66.17
-75.34
-86.73
-99.20
-110.41
-117.31
-116.86
-107.18
-88.33
-62.51
-33.43
-5.19
18.95
37.25
49.57
56.89
60.62
61.98
61.82
60.71
59.06
57.30
55.85
55.00
54.83
55.12
55.48
55.59
55.31
54.83
54.54
54.78
55.44
55.91
55.21
52.37
46.96
39.30
30.47
21.76
14.25
8.27
3.35
-1.50
-7.30
-14.57
-23.14
-32.23
-40.79
-47.92
-53.30
-57.20
-60.47
-64.34
-70.04
-78.48
-89.68
-102.40
-114.04
-121.13
-120.29
-109.52
-89.09
-61.66
-31.40
-2.67
21.35
39.37
51.67
59.44
63.90
65.81
65.58
63.59
60.51
57.30
54.92
53.93
54.26
55.26
56.11
56.13
55.18
53.63
52.11
51.21
51.04
51.17
50.76
48.87
44.93
38.98
31.69
24.10
17.22
11.55
6.95
2.68
-2.17
-8.26
-15.64
-23.82
-31.92
-39.12
-44.90
-49.27
-52.70
-56.03
-60.26
-66.37
-74.95
-85.91
-98.02
-108.86
-115.21
-113.96
-103.28
-83.39
-56.76
-27.33
0.70
24.08
41.21
52.10
57.77
59.53
58.52
55.57
51.45
46.91
42.80
39.79
38.22
37.98
38.61
39.53
40.35
40.93
41.45
42.10
42.91
43.52
43.25
41.37
37.39
31.36
23.96
16.21
9.09
3.09
-1.99
-6.90
-12.51
-19.32
-27.16
-35.25
-42.61
-48.52
-52.84
-56.09
-59.26
-63.50
-69.77
-78.50
-89.19
-100.18
-108.76
-111.71
-106.34
-91.57
-68.58
-40.54
-11.72
13.94
33.88
47.34
55.00
58.30
58.71
57.34
54.94
52.04
49.05
46.37
44.30
43.03
42.61
42.95
43.84
45.01
46.21
47.25
47.96
48.13
47.46
45.58
42.13
37.03
30.57
23.31
15.88
8.68
1.69
-5.51
-13.33
-21.94
-30.98
-39.69
-47.23
-53.11
-57.46
-61.05
-65.15
-71.04
-79.49
-90.34
-102.19
-112.42
-117.79
-115.32
-103.38
-82.40
-54.97
-25.01
3.32
26.88
44.12
55.12
60.96
63.01
62.44
60.11
56.70
52.89
49.38
46.80
45.46
45.33
46.02
47.00
47.83
48.37
48.70
49.06
49.56
49.99
49.76
48.11
44.44
38.59
31.04
22.78
14.93
8.26
2.84
-1.94
-7.06
-13.37
-21.10
-29.77
-38.38
-45.87
-51.63
-55.75
-59.06
-62.77
-68.14
-76.06
-86.67
-99.10
-111.29
-120.30
-122.90
-116.63
-100.72
-76.60
-47.63
-18.02
8.42
29.26
43.87
52.98
57.94
60.03
60.10
58.68
56.23
53.35
50.71
48.90
48.17
48.36
49.01
49.61
49.88
49.84
49.78
49.99
50.52
50.97
50.66
48.79
44.86
38.90
31.48
23.55
16.02
9.36
3.45
-2.36
-8.80
-16.29
-24.64
-33.08
-40.67
-46.73
-51.25
-54.86
-58.67
-63.92
-71.54
-81.83
-94.15
-106.71
-116.73
-120.89
-116.39
-102.01
-78.80
-49.95
-19.83
7.43
29.10
44.32
53.76
58.74
60.53
60.04
57.88
54.67
51.23
48.39
46.71
46.33
46.90
47.83
48.67
49.24
49.65
50.12
50.73
51.21
51.02
49.58
46.48
41.73
35.72
29.09
22.45
16.20
10.33
4.49
-1.82
-9.01
-17.10
-25.73
-34.16
-41.67
-47.84
-52.74
-57.02
-61.73
-67.98
-76.56
-87.42
-99.33
-109.84
-115.69
-113.81
-102.42
-81.91
-54.93
-25.60
1.85
24.33
40.57
50.97
56.85
59.60
60.18
59.06
56.56
53.07
49.27
45.94
43.73
42.99
43.59
45.09
46.88
48.44
49.40
49.63
49.06
47.59
45.05
41.27
36.20
30.07
23.28
16.18
9.01
1.72
-5.78
-13.56
-21.46
-29.14
-36.23
-42.51
-48.05
-53.22
-58.64
-65.01
-72.92
-82.40
-92.58
-101.47
-106.25
-104.07
-93.13
-73.64
-47.88
-19.66
6.93
28.76
44.30
53.58
57.64
57.80
55.18
50.67
45.05
39.14
33.89
30.17
28.56
29.12
31.34
34.24
36.79
38.21
38.29
37.36
36.04
34.74
33.33
31.17
27.34
21.13
12.46
2.02
-8.94
-19.12
-27.62
-34.20
-39.32
-43.85
-48.79
-55.05
-63.26
-73.55
-85.27
-96.83
-105.65
-108.79
-103.83
-89.86
-68.08
-41.51
-14.14
10.35
29.61
42.97
51.06
55.16
56.45
55.70
53.30
49.60
45.15
40.78
37.38
35.63
35.75
37.41
39.83
42.16
43.70
44.16
43.63
42.41
40.75
38.64
35.75
31.56
25.59
17.67
8.05
-2.58
-13.32
-23.35
-32.15
-39.71
-46.41
-52.96
-60.20
-68.89
-79.49
-91.69
-104.18
-114.54
-119.74
-117.07
-105.13
-84.54
-57.88
-28.98
-1.65
21.28
38.55
50.34
57.70
61.98
64.29
65.38
65.59
65.09
64.01
62.58
61.13
60.03
59.53
59.70
60.36
61.20
61.90
62.14
61.61
60.02
57.12
52.80
47.17
40.56
33.45
26.29
19.33
12.55
5.68
-1.66
-9.72
-18.49
-27.55
-36.27
-43.96
-50.24
-55.32
-60.05
-65.79
-73.90
-85.06
-98.60
-112.20
-122.33
-125.28
-118.46
-101.52
-76.53
-47.34
-18.22
7.45
27.95
43.18
54.03
61.59
66.65
69.67
70.89
70.74
69.82
68.88
68.54
69.07
70.24
71.41
71.89
71.23
69.54
67.44
65.68
64.70
64.28
63.55
61.33
56.75
49.58
40.53
30.83
21.79
14.28
8.36
3.40
-1.62
-7.61
-14.93
-23.24
-31.70
-39.36
-45.64
-50.59
-54.88
-59.53
-65.62
-73.94
-84.79
-97.58
-110.72
-121.53
-126.83
-123.78
-110.96
-89.12
-61.12
-31.14
-3.27
19.67
36.67
48.33
56.03
61.08
64.22
65.68
65.53
64.09
62.04
60.25
59.41
59.68
60.65
61.60
61.91
61.36
60.29
59.30
58.86
58.93
58.90
57.77
54.68
49.24
41.78
33.22
24.70
17.18
11.04
6.05
1.43
-3.68
-9.91
-17.31
-25.37
-33.25
-40.08
-45.42
-49.39
-52.66
-56.29
-61.36
-68.77
-78.82
-90.94
-103.43
-113.60
-118.25
-114.72
-101.85
-80.65
-54.06
-26.09
-0.48
20.34
35.61
45.94
52.56
56.59
58.71
59.27
58.54
57.01
55.36
54.31
54.32
55.37
57.03
58.59
59.48
59.47
58.74
57.71
56.78
55.99
54.96
53.00
49.43
43.91
36.65
28.42
20.26
13.07
7.24
2.46
-2.10
-7.39
-13.95
-21.66
-29.77
-37.25
-43.27
-47.62
-50.72
-53.49
-56.93
-61.89
-68.88
-77.85
-88.10
-98.04
-105.31
-107.20
-101.48
-87.35
-65.91
-40.11
-13.79
9.48
27.46
39.58
46.61
49.93
50.80
50.03
48.03
45.16
41.95
39.13
37.43
37.25
38.50
40.67
43.03
44.95
46.08
46.34
45.79
44.48
42.37
39.34
35.39
30.60
25.22
19.52
13.63
7.60
1.33
-5.21
-12.00
-18.82
-25.37
-31.31
-36.44
-40.78
-44.65
-48.72
-53.80
-60.64
-69.48
-79.66
-89.43
-96.15
-97.03
-90.06
-74.89
-53.15
-28.12
-3.58
17.20
32.48
42.12
47.14
48.90
48.50
46.51
43.22
38.93
34.24
29.98
27.04
25.98
26.88
29.21
32.13
34.69
36.19
36.27
34.95
32.50
29.23
25.34
20.84
15.58
9.43
2.40
-5.25
-13.07
-20.54
-27.28
-33.12
-38.18
-42.72
-47.05
-51.54
-56.62
-62.77
-70.31
-79.01
-87.75
-94.39
-96.28
-91.10
-77.94
-57.83
-33.57
-8.81
13.16
30.30
42.10
49.20
52.71
53.67
52.80
50.61
47.62
44.41
41.59
39.60
38.60
38.43
38.82
39.50
40.39
41.50
42.83
44.18
45.07
44.88
43.04
39.39
34.17
27.99
21.52
15.21
9.16
3.17
-3.06
-9.76
-16.92
-24.33
-31.64
-38.42
-44.37
-49.32
-53.50
-57.50
-62.26
-68.80
-77.74
-88.76
-100.24
-109.38
-112.91
-108.23
-94.45
-72.94
-46.97
-20.58
2.74
21.01
33.98
42.54
47.97
51.29
53.01
53.44
52.87
51.78
50.72
50.16
50.28
50.92
51.70
52.22
52.19
51.57
50.54
49.40
48.38
47.41
46.14
43.99
40.38
35.07
28.26
20.66
13.16
6.62
1.53
-2.19
-5.17
-8.31
-12.42
-17.91
-24.60
-31.77
-38.51
-44.05
-48.08
-50.95
-53.52
-56.96
-62.37
-70.42
-80.97
-92.81
-103.66
-110.57
-110.71
-102.32
-85.45
-62.07
-35.60
-9.79
12.32
29.05
40.21
46.65
49.68
50.52
50.06
48.91
47.53
46.31
45.59
45.54
46.13
47.07
47.94
48.40
48.38
48.16
48.08
48.41
48.98
49.14
48.04
44.93
39.62
32.51
24.54
16.75
9.90
4.18
-0.81
-5.80
-11.49
-18.15
-25.52
-32.87
-39.39
-44.55
-48.41
-51.62
-55.23
-60.29
-67.53
-76.95
-87.59
-97.47
-103.94
-104.31
-96.76
-81.02
-58.76
-33.05
-7.52
14.74
31.91
43.59
50.45
53.59
54.08
52.75
50.23
47.12
44.09
41.78
40.66
40.82
41.95
43.42
44.62
45.20
45.18
44.88
44.62
44.37
43.75
42.05
38.65
33.40
26.73
19.54
12.78
7.00
2.11
-2.49
-7.59
-13.72
-20.83
-28.30
-35.25
-40.95
-45.14
-48.15
-50.77
-54.05
-58.98
-66.25
-75.96
-87.24
-98.19
-106.02
-107.77
-101.27
-86.10
-63.93
-38.10
-12.48
9.66
26.58
38.18
45.47
49.79
52.16
53.13
52.93
51.80
50.23
48.85
48.23
48.61
49.75
51.12
52.08
52.30
51.81
51.01
50.31
49.87
49.41
48.29
45.79
41.50
35.56
28.60
21.52
15.07
9.51
4.53
-0.53
-6.33
-13.13
-20.68
-28.33
-35.32
-41.13
-45.72
-49.51
-53.30
-58.01
-64.45
-73.05
-83.52
-94.63
-104.14
-109.28
-107.45
-97.26
-79.15
-55.45
-29.72
-5.63
14.15
28.49
37.75
43.18
46.15
47.72
48.49
48.76
48.78
48.81
49.09
49.72
50.60
51.46
52.00
52.06
51.73
51.27
50.97
50.91
50.78
50.00
47.82
43.73
37.70
30.24
22.27
14.75
8.29
2.85
-2.10
-7.37
-13.55
-20.63
-28.09
-35.02
-40.62
-44.56
-47.18
-49.39
-52.39
-57.38
-65.09
-75.51
-87.53
-98.92
-106.70
-107.95
-100.78
-85.12
-62.86
-37.33
-12.25
9.35
25.78
36.85
43.41
46.77
48.18
48.58
48.48
48.12
47.62
47.13
46.90
47.19
48.16
49.67
51.35
52.77
53.60
53.84
53.68
53.37
52.92
52.01
50.12
46.77
41.83
35.62
28.85
22.33
16.64
11.91
7.79
3.60
-1.37
-7.52
-14.82
-22.75
-30.56
-37.55
-43.33
-47.99
-52.03
-56.25
-61.50
-68.47
-77.34
-87.49
-97.33
-104.44
-106.14
-100.41
-86.65
-66.14
-41.69
-16.83
5.29
22.67
34.78
42.18
45.98
47.28
46.89
45.33
43.04
40.49
38.23
36.82
36.65
37.78
39.89
42.40
44.71
46.33
47.06
46.87
45.81
43.87
40.95
37.01
32.11
26.46
20.39
14.11
7.70
1.09
-5.81
-12.94
-20.02
-26.65
-32.45
-37.25
-41.23
-44.94
-49.18
-54.76
-62.18
-71.22
-80.71
-88.52
-92.07
-89.06
-78.38
-60.63
-38.06
-14.00
8.20
26.04
38.41
45.58
48.65
48.94
47.51
44.99
41.72
37.97
34.16
30.88
28.76
28.22
29.30
31.57
34.30
36.73
38.24
38.54
37.58
35.50
32.46
28.65
24.20
19.19
13.69
7.73
1.36
-5.39
-12.40
-19.50
-26.43
-32.91
-38.80
-44.11
-49.15
-54.51
-60.88
-68.81
-78.32
-88.47
-97.30
-102.19
-100.58
-91.00
-73.71
-50.83
-25.68
-1.77
18.16
32.87
42.47
48.00
50.78
51.86
51.90
51.20
49.97
48.43
46.94
45.93
45.71
46.40
47.78
49.35
50.55
50.90
50.15
48.33
45.62
42.25
38.39
34.02
29.04
23.32
16.73
9.28
1.15
-7.30
-15.59
-23.21
-29.88
-35.50
-40.35
-44.98
-50.12
-56.46
-64.45
-74.00
-84.21
-93.31
-98.89
-98.50
-90.50
-74.79
-53.03
-28.24
-3.83
17.32
33.58
44.70
51.36
54.67
55.66
55.14
53.69
51.79
49.88
48.33
47.36
47.02
47.19
47.65
48.17
48.64
48.98
49.23
49.32
49.03
47.96
45.64
41.71
36.18
29.45
22.19
15.07
8.51
2.49
-3.35
-9.43
-15.95
-22.80
-29.55
-35.70
-40.97
-45.45
-49.66
-54.43
-60.73
-69.21
-79.76
-91.16
-101.00
-106.23
-104.12
-93.30
-74.42
-50.08
-23.97
0.32
20.27
34.88
44.46
50.01
52.63
53.20
52.37
50.64
48.56
46.64
45.29
44.73
44.94
45.71
46.76
47.89
48.97
49.95
50.72
51.02
50.46
48.61
45.21
40.21
33.96
27.06
20.20
13.93
8.44
3.56
-1.23
-6.52
-12.66
-19.59
-26.83
-33.70
-39.62
-44.46
-48.63
-53.02
-58.67
-66.41
-76.31
-87.40
-97.58
-103.97
-103.81
-95.37
-78.73
-55.88
-30.21
-5.43
15.51
31.09
41.25
46.93
49.48
50.07
49.53
48.36
46.89
45.41
44.20
43.49
43.40
43.88
44.80
45.93
47.07
48.05
48.63
48.54
47.46
45.11
41.36
36.36
30.56
24.52
18.71
13.35
8.26
3.04
-2.72
-9.12
-15.90
-22.50
-28.32
-33.05
-36.78
-40.02
-43.58
-48.33
-54.95
-63.55
-73.41
-82.82
-89.32
-90.26
-83.72
-69.40
-48.87
-25.18
-1.98
17.63
31.92
40.66
44.77
45.61
44.43
42.10
39.11
35.81
32.58
29.87
28.14
27.73
28.69
30.72
33.33
35.90
37.89
38.91
38.76
37.38
34.79
31.07
26.40
21.00
15.18
9.21
3.22
-2.81
-8.99
-15.43
-22.06
-28.62
-34.72
-40.03
-44.47
-48.30
-52.16
-56.91
-63.36
-71.90
-82.04
-92.22
-99.93
-102.32
-97.14
-83.70
-63.27
-38.86
-14.22
7.28
23.61
34.36
40.41
43.24
44.26
44.40
44.11
43.61
43.00
42.44
42.15
42.26
42.84
43.81
44.98
46.11
46.95
47.28
46.98
45.93
44.06
41.26
37.47
32.64
26.86
20.32
13.24
5.88
-1.58
-8.99
-16.20
-23.04
-29.28
-34.72
-39.33
-43.36
-47.35
-52.10
-58.44
-66.91
-77.35
-88.59
-98.41
-103.99
-102.66
-92.99
-75.41
-52.28
-27.12
-3.52
15.94
30.22
39.66
45.34
48.50
49.99
50.39
50.09
49.47
48.96
48.90
49.31
49.99
50.55
50.70
50.42
49.98
49.80
50.18
51.07
51.95
51.98
50.36
46.66
41.00
34.06
26.77
19.96
14.06
8.96
4.12
-1.11
-7.22
-14.26
-21.85
-29.35
-36.03
-41.51
-45.79
-49.41
-53.34
-58.68
-66.30
-76.39
-88.03
-99.09
-106.59
-107.52
-99.92
-83.70
-60.86
-34.87
-9.60
11.91
28.15
39.17
46.06
50.17
52.51
53.61
53.65
52.74
51.20
49.54
48.38
48.15
48.92
50.35
51.88
52.97
53.37
53.20
52.83
52.57
52.35
51.75
50.06
46.69
41.44
34.68
27.19
19.88
13.47
8.30
4.19
0.64
-3.09
-7.57
-13.14
-19.65
-26.59
-33.23
-38.96
-43.53
-47.24
-50.81
-55.25
-61.51
-70.14
-81.02
-93.03
-104.04
-111.24
-111.87
-104.12
-87.91
-65.08
-38.85
-12.89
9.80
27.55
40.15
48.33
53.13
55.49
55.97
55.01
53.09
50.82
48.91
47.90
48.00
49.06
50.60
52.00
52.85
52.98
52.53
51.75
50.86
49.84
48.38
46.03
42.40
37.33
31.04
24.14
17.41
11.55
6.86
3.15
-0.22
-4.04
-8.88
-14.80
-21.41
-27.99
-33.83
-38.59
-42.31
-45.37
-48.36
-51.90
-56.63
-63.12
-71.56
-81.45
-91.26
-98.53
-100.39
-94.59
-80.46
-59.40
-34.54
-9.73
11.70
27.85
38.44
44.38
46.98
47.42
46.46
44.61
42.34
40.22
38.82
38.49
39.19
40.49
41.81
42.73
43.15
43.31
43.59
44.19
44.93
45.26
44.41
41.82
37.30
31.21
24.32
17.49
11.34
6.04
1.29
-3.48
-8.78
-14.77
-21.26
-27.70
-33.54
-38.43
-42.35
-45.66
-49.07
-53.43
-59.54
-67.67
-77.19
-86.38
-92.68
-93.38
-86.70
-72.46
-52.37
-29.44
-7.00
12.23
26.75
36.31
41.52
43.35
42.75
40.55
37.42
34.03
30.95
28.67
27.56
27.75
29.14
31.39
33.99
36.40
38.20
39.08
38.92
37.72
35.58
32.58
28.87
24.56
19.70
14.31
8.35
1.87
-4.98
-11.92
-18.61
-24.69
-29.98
-34.53
-38.63
-42.68
-47.16
-52.53
-59.13
-66.90
-75.18
-82.50
-86.76
-85.76
-78.00
-63.39
-43.51
-21.28
-0.00
17.62
30.22
37.84
41.50
42.45
41.62
39.42
36.04
31.77
27.28
23.52
21.40
21.36
23.17
25.93
28.57
30.20
30.51
29.70
28.23
26.49
24.48
21.86
18.12
12.83
5.92
-2.22
-10.89
-19.29
-26.72
-32.85
-37.72
-41.71
-45.48
-49.81
-55.45
-62.86
-71.90
-81.60
-90.05
-94.81
-93.60
-85.11
-69.64
-49.13
-26.58
-5.05
13.14
26.90
36.28
42.03
45.06
46.12
45.75
44.38
42.47
40.55
39.15
38.62
39.00
39.99
41.10
41.82
41.84
41.15
39.97
38.59
37.14
35.54
33.41
30.22
25.53
19.13
11.19
2.31
-6.70
-15.03
-22.17
-28.06
-33.12
-38.10
-43.86
-51.15
-60.38
-71.30
-82.77
-92.74
-98.56
-97.75
-88.90
-72.31
-50.15
-25.75
-2.58
16.78
31.22
40.97
47.06
50.71
52.84
53.98
54.33
54.04
53.24
52.19
51.18
50.45
50.08
49.99
49.97
49.76
49.15
48.07
46.54
44.60
42.25
39.39
35.84
31.46
26.11
19.80
12.65
4.93
-2.94
-10.51
-17.36
-23.34
-28.56
-33.38
-38.39
-44.20
-51.38
-60.35
-71.06
-82.76
-93.75
-101.54
-103.43
-97.46
-83.24
-62.36
-37.96
-13.70
7.40
23.72
35.14
42.50
46.92
49.33
50.24
49.99
48.95
47.55
46.26
45.40
45.07
45.20
45.67
46.38
47.19
47.96
48.44
48.32
47.26
45.06
41.66
37.24
32.07
26.43
20.50
14.26
7.66
0.69
-6.50
-13.59
-20.21
-26.13
-31.32
-35.98
-40.54
-45.44
-51.19
-58.21
-66.72
-76.38
-85.99
-93.50
-96.33
-92.28
-80.37
-61.48
-38.25
-14.23
7.19
23.87
35.22
42.04
45.65
47.30
47.74
47.26
46.05
44.44
42.98
42.25
42.57
43.83
45.58
47.27
48.49
49.10
49.22
48.98
48.33
47.01
44.63
40.92
35.95
30.11
23.99
18.06
12.50
7.09
1.37
-4.97
-11.93
-19.09
-25.80
-31.46
-35.86
-39.32
-42.58
-46.57
-52.13
-59.71
-69.17
-79.53
-88.93
-94.95
-95.17
-87.96
-73.22
-52.56
-28.96
-5.80
14.03
28.93
38.69
44.14
46.57
47.12
46.61
45.47
43.99
42.48
41.31
40.83
41.16
42.12
43.23
43.94
43.96
43.32
42.33
41.29
40.22
38.82
36.57
33.14
28.63
23.48
18.31
13.48
8.94
4.29
-0.88
-6.77
-13.19
-19.62
-25.51
-30.51
-34.64
-38.33
-42.30
-47.34
-54.14
-62.87
-72.84
-82.41
-89.12
-90.37
-84.28
-70.52
-50.54
-27.23
-4.03
16.12
31.52
41.85
47.76
50.29
50.39
48.71
45.78
42.12
38.44
35.46
33.75
33.54
34.60
36.37
38.24
39.67
40.40
40.38
39.66
38.34
36.41
33.82
30.52
26.53
21.94
16.93
11.62
6.04
0.17
-5.99
-12.32
-18.53
-24.27
-29.28
-33.56
-37.40
-41.45
-46.43
-52.91
-60.97
-69.85
-77.94
-82.93
-82.52
-75.16
-60.72
-40.74
-18.06
4.03
22.65
36.14
44.18
47.50
47.34
44.89
41.01
36.23
31.03
25.99
21.80
19.17
18.55
19.87
22.59
25.80
28.59
30.31
30.76
30.08
28.60
26.55
23.98
20.71
16.51
11.19
4.79
-2.41
-9.85
-16.95
-23.25
-28.49
-32.80
-36.57
-40.46
-45.19
-51.36
-59.25
-68.55
-78.22
-86.45
-91.03
-89.86
-81.74
-66.91
-47.11
-25.23
-4.34
13.14
26.04
34.41
39.12
41.21
41.47
40.34
38.10
35.08
31.85
29.12
27.49
27.26
28.26
29.95
31.60
32.60
32.65
31.81
30.37
28.63
26.70
24.36
21.20
16.77
10.88
3.67
-4.32
-12.35
-19.74
-26.07
-31.32
-35.78
-39.99
-44.57
-50.13
-57.11
-65.60
-75.13
-84.42
-91.53
-94.17
-90.40
-79.42
-61.93
-40.13
-17.05
4.28
21.67
34.14
41.91
45.96
47.50
47.57
46.93
45.97
44.90
43.88
43.01
42.40
42.13
42.19
42.55
43.15
43.85
44.53
44.96
44.82
43.76
41.48
37.89
33.18
27.79
22.24
16.91
11.86
6.87
1.52
-4.47
-11.10
-18.03
-24.65
-30.47
-35.27
-39.27
-43.16
-47.87
-54.30
-62.95
-73.48
-84.46
-93.51
-97.81
-95.03
-84.24
-66.30
-43.74
-19.94
1.94
19.76
32.77
41.37
46.53
49.30
50.46
50.52
49.77
48.50
47.08
45.90
45.31
45.46
46.18
47.07
47.70
47.73
47.22
46.46
45.82
45.40
44.93
43.75
41.15
36.72
30.63
23.59
16.60
10.52
5.74
2.00
-1.44
-5.39
-10.39
-16.45
-22.99
-29.15
-34.18
-37.76
-40.18
-42.21
-44.90
-49.16
-55.66
-64.46
-74.90
-85.44
-93.80
-97.35
-93.88
-82.44
-63.87
-40.70
-16.41
5.66
23.20
35.50
43.09
47.20
48.96
49.08
47.90
45.68
42.89
40.26
38.60
38.35
39.39
41.05
42.44
42.95
42.50
41.54
40.75
40.62
41.09
41.59
41.27
39.39
35.67
30.36
24.17
17.96
12.39
7.64
3.43
-0.85
-5.83
-11.79
-18.54
-25.44
-31.71
-36.79
-40.56
-43.43
-46.22
-49.89
-55.27
-62.75
-71.99
-81.76
-89.97
-94.11
-91.92
-82.30
-65.74
-44.40
-21.38
0.19
18.07
31.31
40.07
45.13
47.29
47.15
45.16
41.87
38.06
34.64
32.42
31.76
32.58
34.33
36.39
38.20
39.53
40.43
41.07
41.56
41.77
41.33
39.70
36.54
31.81
25.96
19.72
13.84
8.78
4.50
0.57
-3.55
-8.24
-13.51
-19.00
-24.21
-28.75
-32.51
-35.70
-38.85
-42.61
-47.63
-54.43
-63.05
-72.80
-82.08
-88.57
-89.78
-83.97
-70.83
-51.83
-29.71
-7.75
11.29
25.78
35.39
40.71
42.75
42.50
40.76
38.11
35.00
31.88
29.15
27.15
26.18
26.35
27.64
29.79
32.39
34.84
36.63
37.38
36.97
35.48
33.10
29.98
26.25
21.99
17.26
12.20
6.92
1.46
-4.16
-9.97
-15.90
-21.74
-27.22
-32.13
-36.39
-40.23
-44.14
-48.68
-54.38
-61.28
-68.77
-75.41
-79.18
-78.06
-70.78
-57.32
-39.21
-19.00
0.48
16.94
29.15
36.92
40.79
41.52
39.84
36.34
31.63
26.46
21.70
18.22
16.54
16.73
18.34
20.59
22.68
24.02
24.47
24.25
23.77
23.35
22.99
22.30
20.63
17.36
12.20
5.39
-2.34
-10.02
-16.81
-22.30
-26.63
-30.40
-34.41
-39.38
-45.78
-53.61
-62.29
-70.54
-76.57
-78.36
-74.34
-63.97
-48.17
-29.05
-9.47
7.94
21.43
30.42
35.27
36.82
35.95
33.30
29.38
24.72
20.04
16.18
13.93
13.72
15.47
18.48
21.75
24.27
25.46
25.25
24.11
22.62
21.13
19.50
17.14
13.26
7.34
-0.53
-9.61
-18.74
-26.81
-33.15
-37.80
-41.42
-45.02
-49.61
-55.90
-64.05
-73.46
-82.69
-89.63
-91.93
-87.70
-76.36
-58.92
-37.87
-16.39
2.69
17.61
27.97
34.37
37.78
39.08
38.81
37.33
35.03
32.49
30.37
29.27
29.46
30.79
32.70
34.52
35.63
35.80
35.16
34.22
33.44
33.01
32.58
31.38
28.53
23.46
16.16
7.27
-2.16
-11.04
-18.68
-24.90
-29.99
-34.62
-39.54
-45.50
-53.10
-62.53
-73.27
-83.84
-91.94
-94.98
-90.94
-79.26
-61.13
-39.20
-16.73
3.42
19.55
31.26
39.14
44.21
47.39
49.31
50.31
50.59
50.40
50.03
49.75
49.73
49.94
50.29
50.63
50.93
51.25
51.68
52.12
52.23
51.45
49.18
45.14
39.48
32.85
26.04
19.75
14.18
9.06
3.81
-2.10
-8.81
-15.97
-22.92
-28.99
-33.82
-37.55
-40.79
-44.54
-49.82
-57.44
-67.56
-79.32
-90.79
-99.18
-101.59
-96.00
-82.08
-61.45
-37.24
-13.04
8.20
24.85
36.68
44.45
49.20
51.83
52.91
52.84
52.00
50.90
50.06
49.84
50.37
51.48
52.79
53.92
54.63
54.87
54.80
54.56
54.16
53.38
51.77
48.86
44.36
38.38
31.44
24.34
17.89
12.68
8.75
5.59
2.35
-1.86
-7.52
-14.47
-21.94
-28.87
-34.45
-38.48
-41.54
-44.79
-49.55
-56.78
-66.67
-78.37
-89.92
-98.62
-101.70
-97.14
-84.38
-64.77
-41.16
-17.07
4.31
21.07
32.74
40.06
44.30
46.59
47.72
48.03
47.78
47.29
47.01
47.40
48.70
50.78
53.14
55.18
56.39
56.63
56.15
55.36
54.61
53.94
53.04
51.40
48.51
44.10
38.36
31.78
25.09
18.99
13.88
9.76
6.19
2.53
-1.81
-7.08
-13.07
-19.26
-24.96
-29.74
-33.52
-36.65
-39.75
-43.58
-48.88
-56.17
-65.56
-76.41
-87.16
-95.43
-98.55
-94.39
-82.23
-63.19
-39.98
-16.04
5.49
22.59
34.62
42.07
45.88
47.09
46.46
44.64
42.22
39.85
38.16
37.59
38.23
39.84
41.89
43.78
45.06
45.57
45.48
45.17
44.97
44.98
44.85
43.97
41.69
37.66
32.14
25.88
19.87
14.84
10.93
7.67
4.19
-0.24
-5.86
-12.29
-18.75
-24.39
-28.75
-31.83
-34.11
-36.35
-39.41
-44.00
-50.60
-59.15
-68.86
-78.11
-84.60
-85.99
-80.66
-68.32
-50.28
-29.12
-7.92
10.65
24.93
34.45
39.74
41.81
41.74
40.39
38.35
36.02
33.75
31.82
30.54
30.08
30.49
31.62
33.23
35.02
36.72
38.08
38.86
38.83
37.75
35.42
31.80
27.09
21.70
16.15
10.87
6.00
1.36
-3.44
-8.77
-14.70
-20.91
-26.83
-31.85
-35.63
-38.29
-40.35
-42.63
-46.03
-51.17
-58.08
-65.95
-73.12
-77.34
-76.50
-69.28
-55.78
-37.61
-17.42
1.91
18.09
29.87
37.08
40.30
40.44
38.35
34.71
30.09
25.05
20.28
16.52
14.40
14.24
15.85
18.50
21.22
23.10
23.67
23.03
21.71
20.35
19.30
18.39
17.01
14.39
9.94
3.60
-4.12
-12.30
-19.91
-26.26
-31.12
-34.84
-38.15
-41.95
-46.96
-53.57
-61.61
-70.26
-78.05
-83.01
-83.17
-77.15
-64.81
-47.38
-27.26
-7.33
9.97
23.17
31.97
36.97
39.10
39.20
37.87
35.46
32.34
29.00
26.02
24.01
23.33
23.96
25.50
27.30
28.72
29.32
29.07
28.19
27.01
25.58
23.65
20.67
16.13
9.80
2.04
-6.35
-14.37
-21.17
-26.43
-30.42
-33.87
-37.73
-42.89
-49.90
-58.73
-68.67
-78.25
-85.39
-87.92
-84.16
-73.60
-57.18
-37.18
-16.52
2.09
16.95
27.54
34.35
38.26
40.10
40.37
39.31
37.20
34.55
32.10
30.65
30.67
32.05
34.13
35.95
36.70
36.05
34.28
32.09
30.19
28.84
27.74
26.10
23.05
18.04
11.17
3.08
-5.27
-12.96
-19.45
-24.68
-29.10
-33.43
-38.52
-45.02
-53.28
-62.96
-72.97
-81.48
-86.28
-85.36
-77.69
-63.66
-45.11
-24.76
-5.41
10.85
23.09
31.47
36.74
39.80
41.29
41.56
40.87
39.52
38.02
36.91
36.62
37.25
38.43
39.55
39.98
39.36
37.81
35.81
33.96
32.63
31.63
30.30
27.78
23.42
17.12
9.43
1.26
-6.40
-12.90
-18.14
-22.49
-26.66
-31.44
-37.56
-45.42
-54.99
-65.47
-75.32
-82.39
-84.47
-79.94
-68.50
-51.32
-30.83
-9.95
8.72
23.58
34.19
41.01
44.89
46.64
46.82
45.73
43.65
40.99
38.34
36.31
35.32
35.44
36.28
37.19
37.52
36.94
35.56
33.75
31.92
30.15
28.08
25.07
20.54
14.33
6.87
-0.96
-8.24
-14.34
-19.23
-23.42
-27.66
-32.75
-39.18
-47.09
-56.12
-65.37
-73.29
-77.94
-77.43
-70.55
-57.39
-39.51
-19.51
-0.31
15.85
27.89
35.85
40.46
42.61
42.86
41.49
38.75
35.04
31.13
27.93
26.15
26.06
27.34
29.24
30.86
31.56
31.09
29.65
27.65
25.50
23.31
20.83
17.56
13.02
6.98
-0.32
-8.18
-15.72
-22.18
-27.25
-31.25
-34.99
-39.50
-45.66
-53.93
-64.01
-74.77
-84.28
-90.14
-90.18
-83.11
-69.10
-49.89
-28.27
-7.18
11.09
25.46
35.98
43.35
48.35
51.43
52.77
52.43
50.64
47.98
45.23
43.15
42.23
42.48
43.46
44.48
44.87
44.23
42.57
40.19
37.52
34.83
32.11
29.05
25.21
20.21
13.98
6.83
-0.69
-7.91
-14.30
-19.69
-24.27
-28.49
-32.99
-38.34
-44.99
-53.15
-62.51
-72.16
-80.47
-85.28
-84.52
-76.88
-62.48
-42.99
-21.23
-0.30
17.37
30.56
39.35
44.67
47.59
49.00
49.33
48.83
47.75
46.51
45.58
45.33
45.85
46.87
47.97
48.80
49.20
49.30
49.25
49.06
48.49
47.06
44.36
40.21
34.88
28.96
23.15
17.94
13.41
9.26
4.96
0.05
-5.62
-11.83
-18.06
-23.76
-28.60
-32.57
-36.11
-39.90
-44.74
-51.27
-59.69
-69.49
-79.26
-86.79
-89.64
-85.82
-74.64
-57.14
-35.87
-14.11
5.24
20.41
31.03
37.80
41.80
43.94
44.71
44.33
43.07
41.44
40.07
39.52
39.95
41.07
42.28
42.94
42.75
41.84
40.64
39.60
38.94
38.40
37.41
35.38
31.95
27.23
21.73
16.11
10.97
6.60
2.85
-0.64
-4.37
-8.62
-13.35
-18.20
-22.63
-26.20
-28.79
-30.74
-32.79
-35.85
-40.74
-47.79
-56.65
-66.12
-74.24
-78.76
-77.77
-70.26
-56.71
-38.94
-19.69
-1.69
12.95
23.39
29.81
33.14
34.41
34.43
33.63
32.24
30.54
28.90
27.77
27.48
28.13
29.52
31.26
33.01
34.56
35.91
37.05
37.92
38.26
37.72
35.98
32.96
28.90
24.20
19.35
14.66
10.26
6.00
1.60
-3.18
-8.50
-14.19
-19.91
-25.13
-29.48
-32.83
-35.46
-38.07
-41.50
-46.48
-53.17
-60.93
-68.22
-72.96
-73.11
-67.37
-55.77
-39.69
-21.49
-3.79
11.29
22.63
30.08
34.19
35.72
35.34
33.55
30.72
27.35
24.01
21.36
19.94
19.96
21.30
23.49
25.95
28.16
29.77
30.64
30.73
30.04
28.57
26.32
23.31
19.68
15.60
11.20
6.62
1.88
-2.96
-7.85
-12.63
-17.15
-21.26
-24.91
-28.22
-31.50
-35.19
-39.73
-45.44
-52.19
-59.28
-65.39
-68.79
-67.90
-61.78
-50.57
-35.51
-18.68
-2.36
11.59
22.02
28.61
31.75
32.15
30.65
27.98
24.71
21.30
18.09
15.40
13.55
12.74
12.99
14.10
15.67
17.18
18.29
18.82
18.82
18.44
17.78
16.73
15.05
12.43
8.67
3.86
-1.69
-7.44
-12.85
-17.49
-21.29
-24.42
-27.24
-30.15
-33.48
-37.55
-42.63
-48.83
-55.86
-62.81
-68.10
-69.90
-66.69
-57.97
-44.52
-28.27
-11.63
3.21
14.94
23.21
28.35
31.04
31.90
31.37
29.77
27.46
24.87
22.47
20.73
19.91
20.04
20.90
22.18
23.53
24.68
25.43
25.66
25.25
24.12
22.19
19.44
15.88
11.53
6.45
0.77
-5.24
-11.22
-16.79
-21.69
-25.84
-29.38
-32.60
-35.81
-39.35
-43.55
-48.68
-54.81
-61.58
-67.97
-72.43
-73.24
-69.01
-59.32
-45.00
-27.90
-10.43
5.19
17.47
25.90
30.86
33.19
33.82
33.51
32.74
31.76
30.70
29.64
28.72
28.04
27.69
27.66
27.88
28.21
28.52
28.69
28.65
28.35
27.72
26.65
25.00
22.66
19.54
15.61
10.95
5.68
0.05
-5.66
-11.15
-16.21
-20.77
-24.90
-28.87
-33.08
-38.01
-44.12
-51.61
-60.19
-68.85
-75.91
-79.32
-77.34
-69.23
-55.60
-38.36
-20.12
-3.33
10.33
20.27
26.77
30.56
32.41
32.92
32.46
31.27
29.59
27.72
26.02
24.83
24.45
25.05
26.57
28.65
30.79
32.44
33.21
33.05
32.11
30.66
28.87
26.71
23.95
20.36
15.78
10.26
4.02
-2.55
-9.04
-15.07
-20.41
-25.04
-29.14
-33.07
-37.35
-42.42
-48.61
-55.86
-63.55
-70.44
-74.75
-74.64
-68.85
-57.17
-40.81
-22.08
-3.77
11.79
23.23
30.41
34.10
35.45
35.49
34.85
33.82
32.50
31.01
29.58
28.52
28.07
28.31
29.12
30.20
31.25
32.00
32.31
32.05
31.16
29.54
27.10
23.84
19.85
15.32
10.47
5.49
0.48
-4.47
-9.27
-13.80
-17.93
-21.64
-25.02
-28.36
-32.02
-36.46
-42.05
-48.96
-56.99
-65.30
-72.41
-76.44
-75.57
-68.77
-56.24
-39.50
-20.94
-3.13
11.93
23.21
30.67
34.89
36.70
36.76
35.57
33.53
31.06
28.69
26.95
26.28
26.85
28.50
30.75
33.02
34.78
35.70
35.70
34.87
33.36
31.29
28.73
25.65
22.04
17.90
13.25
8.13
2.62
-3.13
-8.93
-14.52
-19.65
-24.21
-28.29
-32.22
-36.50
-41.68
-48.08
-55.58
-63.35
-69.87
-73.23
-71.69
-64.29
-51.31
-34.35
-15.88
1.55
15.98
26.44
32.91
35.99
36.43
34.96
32.17
28.69
25.18
22.30
20.57
20.22
21.09
22.70
24.41
25.65
26.04
25.57
24.48
23.15
21.89
20.67
19.18
16.83
13.14
7.91
1.44
-5.59
-12.36
-18.19
-22.82
-26.46
-29.71
-33.37
-38.26
-44.88
-53.20
-62.48
-71.25
-77.49
-79.17
-74.85
-64.23
-48.36
-29.41
-10.04
7.31
21.04
30.63
36.41
39.17
39.70
38.61
36.28
33.10
29.65
26.64
24.75
24.37
25.43
27.38
29.45
30.98
31.59
31.35
30.52
29.41
28.08
26.32
23.73
19.93
14.76
8.46
1.56
-5.28
-11.50
-16.85
-21.40
-25.53
-29.77
-34.65
-40.70
-48.23
-57.24
-67.15
-76.62
-83.68
-86.17
-82.38
-71.83
-55.55
-35.83
-15.60
2.58
17.11
27.57
34.44
38.61
40.92
41.86
41.75
40.83
39.40
37.88
36.70
36.17
36.36
37.12
38.08
38.80
38.88
38.17
36.75
34.92
32.98
31.09
29.10
26.57
22.99
18.02
11.69
4.50
-2.81
-9.48
-15.13
-19.78
-23.91
-28.12
-33.07
-39.18
-46.67
-55.44
-64.96
-74.09
-81.12
-84.01
-81.04
-71.42
-55.81
-36.20
-15.39
3.86
19.64
31.16
38.68
43.06
45.30
46.20
46.25
45.69
44.69
43.45
42.26
41.51
41.46
42.26
43.75
45.53
47.13
48.15
48.37
47.74
46.30
44.08
41.01
37.07
32.26
26.67
20.46
13.82
6.91
-0.01
-6.70
-12.88
-18.42
-23.40
-28.10
-33.00
-38.57
-45.19
-53.06
-61.97
-71.27
-79.59
-85.08
-85.75
-80.16
-68.03
-50.58
-30.30
-10.18
7.28
20.66
29.79
35.39
38.54
40.09
40.58
40.28
39.44
38.39
37.57
37.33
37.82
38.91
40.28
41.56
42.44
42.76
42.50
41.63
40.18
38.12
35.48
32.29
28.58
24.36
19.55
14.03
7.82
1.12
-5.69
-12.12
-17.80
-22.58
-26.63
-30.36
-34.38
-39.33
-45.74
-53.79
-62.94
-71.84
-78.41
-80.43
-76.23
-65.44
-49.19
-29.80
-10.07
7.54
21.48
31.30
37.35
40.43
41.39
40.92
39.54
37.65
35.63
33.92
32.87
32.74
33.52
34.95
36.56
37.87
38.47
38.20
37.17
35.60
33.74
31.66
29.30
26.46
22.91
18.52
13.34
7.58
1.57
-4.38
-9.98
-15.10
-19.76
-24.14
-28.57
-33.50
-39.37
-46.52
-54.86
-63.71
-71.70
-76.87
-77.30
-71.64
-59.81
-43.20
-24.27
-5.76
10.14
22.33
30.79
36.18
39.20
40.34
39.82
37.92
35.14
32.27
30.11
29.21
29.69
31.21
33.21
35.10
36.45
37.03
36.77
35.64
33.72
31.09
27.87
24.20
20.10
15.51
10.29
4.42
-1.91
-8.28
-14.18
-19.28
-23.56
-27.29
-30.99
-35.17
-40.21
-46.29
-53.31
-60.74
-67.53
-72.11
-72.72
-67.97
-57.43
-42.01
-23.80
-5.43
10.68
23.03
31.18
35.61
37.22
36.93
35.42
33.18
30.58
28.03
25.95
24.75
24.70
25.83
27.92
30.48
32.89
34.53
35.01
34.23
32.37
29.84
26.97
23.95
20.68
16.95
12.49
7.19
1.17
-5.23
-11.60
-17.53
-22.79
-27.35
-31.41
-35.33
-39.62
-44.79
-51.27
-59.08
-67.59
-75.36
-80.35
-80.50
-74.46
-62.19
-45.21
-26.05
-7.54
8.11
19.78
27.50
32.02
34.35
35.32
35.54
35.38
35.06
34.77
34.65
34.80
35.23
35.94
36.86
37.93
39.01
39.94
40.42
40.17
38.94
36.66
33.45
29.56
25.29
20.76
15.95
10.75
5.09
-0.91
-6.98
-12.73
-17.91
-22.47
-26.66
-30.85
-35.54
-41.16
-48.01
-56.10
-64.89
-73.22
-79.30
-81.16
-77.23
-67.03
-51.45
-32.55
-13.04
4.64
18.81
28.93
35.29
38.71
40.15
40.38
40.00
39.43
38.91
38.58
38.46
38.52
38.66
38.79
38.81
38.66
38.37
37.96
37.47
36.89
36.00
34.53
32.18
28.81
24.56
19.79
14.94
10.35
6.09
1.97
-2.34
-7.08
-12.24
-17.54
-22.54
-26.87
-30.36
-33.18
-35.79
-38.89
-43.22
-49.34
-57.33
-66.40
-74.92
-80.59
-81.14
-75.19
-62.83
-45.73
-26.58
-8.21
7.29
18.99
26.99
32.05
34.97
36.37
36.62
36.03
34.99
34.00
33.51
33.86
35.10
37.01
39.17
41.09
42.40
42.93
42.78
42.22
41.49
40.66
39.53
37.69
34.71
30.45
25.16
19.46
14.09
9.51
5.78
2.48
-0.99
-5.14
-10.10
-15.58
-21.01
-25.83
-29.73
-32.75
-35.30
-38.06
-41.80
-47.21
-54.66
-63.87
-73.65
-82.04
-86.64
-85.40
-77.37
-63.15
-44.75
-24.90
-6.23
9.45
21.35
29.55
34.58
37.09
37.70
37.02
35.65
34.23
33.26
33.07
33.70
34.97
36.54
38.01
39.07
39.54
39.43
38.86
38.04
37.08
35.94
34.36
32.05
28.80
24.60
19.79
14.90
10.51
6.89
3.92
1.11
-2.15
-6.31
-11.40
-17.00
-22.44
-27.09
-30.60
-33.06
-34.86
-36.66
-39.13
-42.93
-48.52
-55.87
-64.31
-72.32
-77.76
-78.45
-72.94
-61.12
-44.43
-25.39
-6.84
8.93
20.73
28.49
32.88
34.79
35.00
34.07
32.42
30.50
28.79
27.70
27.46
28.00
29.00
30.06
30.93
31.54
32.06
32.63
33.26
33.72
33.62
32.61
30.50
27.36
23.48
19.22
14.98
11.00
7.45
4.25
1.14
-2.22
-6.09
-10.52
-15.27
-19.95
-24.17
-27.82
-31.16
-34.71
-39.15
-45.07
-52.65
-61.46
-70.34
-77.47
-80.75
-78.43
-69.75
-55.35
-37.19
-17.97
-0.35
13.77
23.64
29.49
32.21
32.82
32.17
30.79
29.01
27.08
25.29
23.93
23.36
23.73
25.01
26.92
29.08
31.08
32.56
33.29
33.14
32.08
30.16
27.47
24.13
20.33
16.20
11.85
7.32
2.65
-2.18
-7.10
-12.04
-16.86
-21.44
-25.71
-29.74
-33.80
-38.34
-43.81
-50.39
-57.70
-64.60
-69.36
-70.09
-65.39
-54.96
-39.83
-22.15
-4.54
10.71
22.18
29.50
33.15
33.95
32.76
30.18
26.66
22.58
18.43
14.83
12.42
11.56
12.27
14.12
16.45
18.55
19.91
20.39
20.15
19.50
18.62
17.48
15.76
13.02
8.98
3.64
-2.62
-9.15
-15.27
-20.54
-24.88
-28.61
-32.38
-36.88
-42.65
-49.93
-58.47
-67.43
-75.37
-80.51
-81.12
-76.07
-65.32
-50.05
-32.41
-14.85
0.56
12.58
20.94
26.00
28.49
29.06
28.20
26.33
23.90
21.46
19.62
18.88
19.42
21.05
23.24
25.30
26.65
27.07
26.75
26.15
25.66
25.30
24.54
22.56
18.61
12.47
4.62
-3.92
-11.94
-18.60
-23.68
-27.60
-31.19
-35.33
-40.75
-47.76
-56.17
-65.20
-73.46
-79.13
-80.37
-75.92
-65.60
-50.46
-32.55
-14.33
2.09
15.38
25.16
31.81
36.05
38.60
39.91
40.19
39.58
38.26
36.62
35.13
34.22
34.09
34.63
35.42
35.94
35.82
34.91
33.39
31.56
29.67
27.73
25.50
22.51
18.34
12.79
6.08
-1.19
-8.26
-14.44
-19.45
-23.42
-26.90
-30.60
-35.17
-41.07
-48.43
-56.94
-65.77
-73.42
-78.04
-77.79
-71.52
-59.26
-42.44
-23.41
-4.81
11.24
23.65
32.36
38.07
41.67
43.93
45.30
46.00
46.19
46.13
46.07
46.23
46.64
47.18
47.60
47.71
47.43
46.86
46.16
45.38
44.40
42.88
40.48
36.98
32.49
27.41
22.22
17.29
12.74
8.38
3.85
-1.10
-6.53
-12.21
-17.77
-22.82
-27.16
-30.88
-34.34
-38.23
-43.33
-50.33
-59.34
-69.63
-79.46
-86.37
-87.88
-82.39
-69.81
-51.77
-31.07
-10.74
6.82
20.40
29.99
36.31
40.24
42.48
43.39
43.22
42.30
41.14
40.34
40.33
41.25
42.87
44.74
46.41
47.63
48.42
48.95
49.36
49.62
49.42
48.34
45.96
42.09
36.90
30.85
24.62
18.86
13.99
9.97
6.43
2.79
-1.44
-6.47
-12.07
-17.70
-22.77
-26.83
-29.84
-32.14
-34.42
-37.55
-42.38
-49.49
-58.90
-69.80
-80.49
-88.58
-91.62
-87.83
-76.78
-59.65
-38.97
-17.79
1.19
16.25
26.98
33.88
37.94
40.06
40.93
40.92
40.36
39.60
39.10
39.25
40.29
42.12
44.35
46.49
48.08
48.94
49.12
48.89
48.45
47.82
46.73
44.78
41.56
36.94
31.16
24.75
18.41
12.74
8.06
4.34
1.24
-1.73
-5.05
-9.00
-13.54
-18.33
-22.87
-26.65
-29.48
-31.50
-33.29
-35.59
-39.20
-44.64
-52.01
-60.85
-70.02
-77.73
-81.85
-80.47
-72.51
-58.25
-39.41
-18.68
1.06
17.57
29.68
37.38
41.40
42.67
42.09
40.30
37.85
35.26
33.07
31.75
31.53
32.34
33.83
35.53
37.05
38.25
39.22
40.17
41.14
41.94
42.11
41.12
38.61
34.55
29.25
23.30
17.30
11.80
7.09
3.16
-0.22
-3.49
-7.09
-11.27
-15.96
-20.79
-25.24
-28.93
-31.78
-34.13
-36.61
-39.92
-44.60
-50.82
-58.18
-65.62
-71.48
-73.82
-70.96
-62.16
-48.04
-30.49
-12.13
4.54
17.83
27.15
32.80
35.47
35.82
34.31
31.39
27.57
23.54
20.06
17.73
16.81
17.21
18.62
20.65
22.95
25.21
27.11
28.27
28.37
27.21
24.85
21.56
17.72
13.66
9.51
5.22
0.64
-4.39
-9.87
-15.61
-21.24
-26.39
-30.80
-34.44
-37.57
-40.74
-44.59
-49.67
-56.07
-63.19
-69.70
-73.77
-73.57
-67.83
-56.46
-40.58
-22.35
-4.36
11.15
22.75
30.05
33.56
34.23
33.13
31.10
28.71
26.32
24.20
22.58
21.76
21.89
22.97
24.78
26.89
28.85
30.22
30.78
30.48
29.45
27.82
25.68
23.03
19.73
15.61
10.61
4.81
-1.53
-8.04
-14.30
-20.04
-25.13
-29.63
-33.73
-37.79
-42.24
-47.57
-54.13
-61.81
-69.77
-76.40
-79.59
-77.47
-69.09
-55.01
-37.11
-18.16
-0.80
13.09
22.80
28.67
31.58
32.47
32.09
30.94
29.40
27.83
26.60
26.05
26.34
27.45
29.07
30.83
32.33
33.27
33.54
33.16
32.24
30.91
29.22
27.11
24.41
20.86
16.24
10.49
3.85
-3.21
-10.04
-16.09
-21.12
-25.26
-28.98
-32.82
-37.32
-42.79
-49.38
-56.90
-64.75
-71.81
-76.41
-76.72
-71.41
-60.27
-44.46
-26.26
-8.37
6.97
18.58
26.39
31.12
33.68
34.84
35.01
34.38
33.16
31.62
30.21
29.30
29.18
29.91
31.30
33.02
34.64
35.83
36.34
36.10
35.19
33.71
31.73
29.28
26.31
22.73
18.50
13.65
8.29
2.60
-3.21
-8.92
-14.42
-19.61
-24.46
-29.03
-33.49
-38.16
-43.50
-49.98
-57.74
-66.31
-74.35
-79.90
-80.81
-75.59
-64.03
-47.42
-28.24
-9.33
6.93
19.21
27.40
32.20
34.62
35.52
35.49
34.84
33.91
33.02
32.56
32.76
33.66
34.97
36.32
37.36
38.01
38.37
38.66
38.95
39.00
38.34
36.40
32.85
27.81
21.86
15.86
10.53
6.15
2.48
-1.08
-5.10
-9.79
-14.90
-19.89
-24.22
-27.74
-30.74
-33.89
-37.92
-43.40
-50.48
-58.78
-67.34
-74.63
-78.77
-77.95
-71.05
-58.11
-40.56
-20.85
-1.75
14.41
26.36
33.94
37.80
38.94
38.26
36.45
34.02
31.44
29.19
27.74
27.41
28.26
30.14
32.60
35.15
37.36
38.88
39.58
39.43
38.45
36.63
33.99
30.54
26.44
21.93
17.28
12.70
8.20
3.66
-1.07
-6.05
-11.16
-16.16
-20.77
-24.85
-28.58
-32.30
-36.60
-42.00
-48.79
-56.78
-65.08
-72.11
-75.86
-74.45
-66.81
-53.23
-35.38
-15.92
2.30
17.11
27.41
33.29
35.55
35.29
33.47
30.84
27.88
25.04
22.68
21.12
20.60
21.23
22.93
25.51
28.56
31.58
33.99
35.29
35.13
33.45
30.43
26.44
21.91
17.20
12.51
7.87
3.19
-1.67
-6.76
-12.05
-17.33
-22.33
-26.83
-30.74
-34.21
-37.69
-41.83
-47.25
-54.27
-62.59
-71.07
-77.86
-80.80
-78.13
-69.11
-54.43
-36.11
-16.85
0.75
14.90
24.92
31.14
34.43
35.75
35.83
35.13
33.92
32.42
30.90
29.65
28.94
28.93
29.64
30.93
32.57
34.24
35.69
36.67
36.98
36.40
34.77
32.04
28.29
23.86
19.14
14.45
9.89
5.36
0.61
-4.54
-10.01
-15.54
-20.76
-25.45
-29.63
-33.66
-38.11
-43.61
-50.62
-59.11
-68.36
-76.85
-82.46
-83.03
-77.12
-64.64
-47.03
-26.93
-7.31
9.37
21.81
29.93
34.48
36.50
36.87
36.21
35.01
33.77
32.96
32.96
33.85
35.39
37.14
38.71
39.98
41.07
42.17
43.34
44.34
44.68
43.82
41.48
37.71
32.92
27.59
22.19
16.96
11.93
6.95
1.81
-3.62
-9.31
-15.03
-20.45
-25.24
-29.22
-32.49
-35.47
-38.83
-43.33
-49.63
-57.84
-67.29
-76.30
-82.53
-83.57
-77.81
-65.14
-47.21
-26.88
-7.30
9.13
21.29
29.36
34.25
37.02
38.40
38.82
38.56
37.97
37.47
37.46
38.16
39.40
40.82
41.99
42.66
42.92
43.05
43.34
43.91
44.55
44.75
43.98
41.78
38.06
33.12
27.57
22.05
17.11
12.89
9.10
5.15
0.44
-5.34
-12.02
-18.91
-25.13
-30.01
-33.37
-35.67
-37.82
-40.87
-45.71
-52.75
-61.77
-71.73
-80.83
-86.77
-87.30
-81.04
-68.04
-49.89
-29.33
-9.30
7.91
21.16
30.41
36.30
39.67
41.17
41.34
40.58
39.42
38.34
37.73
37.76
38.33
39.14
39.84
40.28
40.49
40.68
41.05
41.69
42.40
42.72
42.10
40.10
36.59
31.84
26.41
20.92
15.84
11.29
7.09
2.79
-1.97
-7.36
-13.19
-18.99
-24.19
-28.38
-31.51
-34.00
-36.59
-40.14
-45.34
-52.36
-60.59
-68.60
-74.39
-75.91
-71.70
-61.51
-46.44
-28.72
-10.99
4.43
16.17
23.94
28.28
30.06
30.10
28.95
26.94
24.33
21.49
18.91
17.08
16.37
16.88
18.39
20.42
22.42
23.92
24.63
24.51
23.64
22.18
20.22
17.82
14.96
11.62
7.77
3.44
-1.30
-6.28
-11.22
-15.82
-19.81
-23.14
-25.99
-28.72
-31.86
-35.93
-41.39
-48.34
-56.33
-64.22
-70.17
-72.14
-68.57
-59.03
-44.55
-27.36
-10.14
4.85
16.38
24.32
29.26
31.98
33.07
32.87
31.59
29.49
27.01
24.72
23.12
22.56
23.06
24.36
26.01
27.54
28.61
29.10
29.08
28.70
28.03
26.92
25.11
22.24
18.09
12.73
6.53
0.09
-6.02
-11.40
-15.97
-19.96
-23.77
-27.89
-32.73
-38.63
-45.76
-53.96
-62.51
-70.00
-74.51
-74.14
-67.73
-55.46
-38.96
-20.77
-3.51
10.94
21.81
29.32
34.14
36.94
38.16
38.04
36.89
35.11
33.26
31.83
31.09
31.08
31.61
32.33
32.92
33.09
32.69
31.77
30.47
29.03
27.61
26.13
24.31
21.68
17.85
12.70
6.45
-0.35
-7.05
-13.11
-18.29
-22.74
-26.90
-31.33
-36.61
-43.16
-51.13
-60.18
-69.32
-76.88
-80.78
-79.12
-70.91
-56.57
-38.05
-18.24
-0.05
14.45
24.55
30.74
34.15
35.88
36.55
36.31
35.09
32.96
30.35
27.93
26.39
26.05
26.76
27.94
28.92
29.22
28.75
27.81
26.74
25.73
24.57
22.73
19.64
14.96
8.82
1.77
-5.35
-11.74
-16.97
-21.03
-24.41
-27.88
-32.26
-38.14
-45.68
-54.42
-63.24
-70.50
-74.31
-73.06
-65.94
-53.36
-36.94
-19.07
-2.27
11.59
21.67
28.07
31.49
32.78
32.59
31.39
29.51
27.34
25.29
23.75
22.97
23.00
23.71
24.82
26.04
27.11
27.90
28.39
28.67
28.80
28.65
27.83
25.79
22.01
16.35
9.19
1.35
-6.14
-12.49
-17.46
-21.47
-25.42
-30.31
-36.94
-45.42
-55.15
-64.72
-72.20
-75.63
-73.52
-65.35
-51.81
-34.70
-16.46
0.50
14.42
24.56
31.15
35.02
37.09
38.00
37.95
36.97
35.13
32.85
30.80
29.61
29.62
30.58
31.84
32.61
32.37
31.11
29.29
27.47
25.99
24.76
23.25
20.69
16.57
10.79
3.82
-3.46
-10.13
-15.58
-19.75
-23.15
-26.62
-30.99
-36.87
-44.35
-52.93
-61.46
-68.30
-71.60
-69.78
-62.16
-49.24
-32.74
-15.02
1.51
15.12
25.08
31.56
35.23
36.88
37.13
36.36
34.82
32.77
30.55
28.58
27.23
26.73
27.02
27.78
28.52
28.86
28.68
28.15
27.57
27.05
26.32
24.80
21.88
17.28
11.29
4.72
-1.49
-6.63
-10.61
-13.90
-17.37
-21.87
-27.98
-35.68
-44.39
-52.89
-59.52
-62.48
-60.35
-52.63
-40.00
-24.26
-7.83
7.06
18.92
27.29
32.55
35.47
36.72
36.69
35.52
33.40
30.69
27.97
25.83
24.67
24.50
25.03
25.85
26.53
26.90
26.85
26.32
25.18
23.18
20.11
15.94
10.90
5.41
-0.12
-5.39
-10.35
-15.15
-20.07
-25.47
-31.67
-38.84
-46.71
-54.43
-60.43
-62.78
-59.83
-50.88
-36.72
-19.53
-2.16
12.73
23.55
29.99
32.83
33.27
32.34
30.59
28.20
25.25
21.98
18.89
16.54
15.32
15.29
16.13
17.33
18.38
18.92
18.73
17.67
15.69
12.77
8.97
4.51
-0.34
-5.29
-10.11
-14.76
-19.38
-24.31
-29.99
-36.75
-44.55
-52.64
-59.51
-63.12
-61.60
-53.94
-40.60
-23.50
-5.46
10.68
22.96
30.70
34.38
35.11
34.03
31.91
29.13
25.83
22.18
18.54
15.40
13.23
12.39
12.86
14.38
16.35
18.07
18.92
18.47
16.55
13.30
9.04
4.09
-1.21
-6.63
-12.05
-17.43
-22.87
-28.63
-35.11
-42.66
-51.16
-59.69
-66.52
-69.52
-66.82
-57.71
-43.02
-24.97
-6.48
9.79
22.17
30.24
34.58
36.22
36.20
35.28
33.93
32.37
30.79
29.29
27.92
26.68
25.54
24.45
23.46
22.62
21.92
21.27
20.40
18.93
16.52
12.99
8.37
2.96
-2.77
-8.37
-13.54
-18.25
-22.82
-27.83
-33.92
-41.39
-49.86
-58.02
-63.88
-65.31
-60.85
-50.33
-35.06
-17.39
-0.02
14.90
26.26
33.95
38.54
40.79
41.33
40.55
38.75
36.32
33.79
31.70
30.46
30.13
30.45
30.91
31.06
30.72
29.95
29.06
28.28
27.57
26.54
24.59
21.16
16.00
9.38
1.99
-5.31
-11.83
-17.25
-21.79
-26.06
-30.92
-37.07
-44.82
-53.86
-63.07
-70.68
-74.58
-73.02
-65.22
-51.77
-34.59
-16.30
0.56
14.30
24.30
30.90
34.93
37.15
38.05
37.82
36.62
34.68
32.45
30.48
29.32
29.23
30.19
31.80
33.50
34.66
34.86
34.01
32.31
30.14
27.82
25.38
22.63
19.23
14.88
9.53
3.44
-2.89
-8.88
-14.03
-18.18
-21.48
-24.37
-27.41
-31.19
-36.15
-42.46
-49.94
-57.91
-65.09
-69.72
-69.95
-64.48
-53.13
-37.13
-18.89
-1.23
13.48
24.06
30.54
33.80
34.90
34.57
33.08
30.56
27.27
23.78
20.90
19.34
19.43
20.97
23.35
25.83
27.77
28.83
28.94
28.26
26.95
25.18
22.99
20.29
16.95
12.81
7.83
2.07
-4.18
-10.50
-16.46
-21.76
-26.34
-30.45
-34.45
-38.79
-43.79
-49.67
-56.36
-63.33
-69.46
-73.19
-72.81
-67.07
-55.79
-40.09
-22.13
-4.53
10.55
21.85
29.21
33.19
34.64
34.30
32.63
29.97
26.65
23.17
20.15
18.20
17.71
18.68
20.76
23.32
25.71
27.40
28.15
27.97
26.99
25.42
23.40
20.97
18.09
14.64
10.46
5.54
0.04
-5.65
-11.06
-15.80
-19.73
-23.02
-26.08
-29.38
-33.39
-38.44
-44.73
-52.12
-59.95
-66.94
-71.30
-71.25
-65.64
-54.53
-39.29
-22.23
-5.84
7.91
18.00
24.32
27.47
28.24
27.39
25.53
23.12
20.57
18.23
16.39
15.27
15.04
15.69
17.07
18.87
20.64
21.87
22.12
21.16
18.99
15.83
11.90
7.38
2.28
-3.47
-9.97
-17.28
-25.31
-33.89
-42.79
-51.77
-60.59
-69.09
-77.22
-85.08
-92.91
-101.15
-110.32
-120.90
-133.08
-146.48
-160.05
-172.08
-180.58
-183.96
-181.56
-173.93
-162.72
-149.97
-137.36
-125.52
-113.94
-101.28
-86.08
-67.39
-45.06
-19.70
7.73
36.18
64.73
92.54
118.69
142.14
161.79
176.75
186.54
191.23
191.36
187.75
181.25
172.64
162.58
151.65
140.38
129.18
118.27
107.64
97.05
86.28
75.18
63.83
52.53
41.65
31.53
22.37
14.05
6.22
-1.68
-10.21
-19.67
-29.81
-39.65
-47.56
-51.69
-50.53
-43.50
-31.33
-15.85
0.40
14.98
26.23
33.52
37.22
38.28
37.65
36.03
33.77
31.02
28.02
25.18
23.01
21.96
22.21
23.57
25.57
27.62
29.21
30.07
30.18
29.65
28.67
27.29
25.50
23.19
20.21
16.55
12.24
7.43
2.30
-2.97
-8.24
-13.37
-18.23
-22.70
-26.75
-30.51
-34.25
-38.44
-43.52
-49.75
-56.83
-63.83
-69.09
-70.75
-67.30
-58.26
-44.41
-27.68
-10.53
4.79
16.79
25.06
29.96
32.31
32.98
32.57
31.45
29.85
27.98
26.15
24.74
24.10
24.42
25.65
27.49
29.53
31.32
32.50
32.84
32.22
30.64
28.18
24.98
21.22
17.08
12.73
8.25
3.65
-1.09
-5.92
-10.76
-15.44
-19.82
-23.80
-27.38
-30.73
-34.13
-37.99
-42.74
-48.58
-55.25
-61.72
-66.38
-67.31
-63.04
-53.13
-38.51
-21.24
-3.92
11.20
22.74
30.37
34.49
35.87
35.21
33.01
29.73
25.84
21.96
18.77
16.83
16.39
17.40
19.51
22.11
24.64
26.58
27.61
27.63
26.72
25.05
22.84
20.19
17.10
13.49
9.23
4.28
-1.30
-7.27
-13.25
-18.87
-23.88
-28.22
-32.09
-35.89
-40.13
-45.27
-51.53
-58.70
-65.95
-71.89
-74.73
-72.87
-65.41
-52.61
-35.98
-17.85
-0.69
13.56
23.96
30.51
33.84
34.72
33.81
31.61
28.55
25.15
22.05
19.91
19.21
20.01
21.98
24.44
26.68
28.11
28.53
28.05
27.05
25.88
24.71
23.41
21.59
18.76
14.60
9.13
2.69
-4.12
-10.67
-16.55
-21.58
-25.94
-29.98
-34.18
-39.03
-44.95
-52.18
-60.51
-69.08
-76.31
-80.20
-78.87
-71.32
-57.95
-40.51
-21.64
-4.01
10.45
20.98
27.86
31.97
34.17
35.09
35.05
34.25
32.89
31.30
29.93
29.10
29.09
29.90
31.37
33.16
34.82
35.93
36.17
35.40
33.68
31.23
28.27
24.98
21.35
17.27
12.58
7.26
1.41
-4.62
-10.37
-15.49
-19.86
-23.71
-27.55
-31.97
-37.43
-44.14
-51.98
-60.36
-68.31
-74.41
-77.07
-74.90
-67.17
-54.26
-37.63
-19.55
-2.36
12.10
22.98
30.35
34.85
37.32
38.43
38.62
38.20
37.47
36.79
36.56
37.03
38.24
39.95
41.80
43.45
44.66
45.32
45.40
44.83
43.41
40.99
37.52
33.15
28.30
23.39
18.71
14.25
9.77
4.92
-0.47
-6.32
-12.28
-17.85
-22.63
-26.51
-29.69
-32.74
-36.38
-41.33
-48.12
-56.79
-66.64
-76.12
-83.05
-85.13
-80.80
-69.77
-53.31
-33.92
-14.50
2.53
15.81
25.18
31.35
35.33
37.99
39.77
40.82
41.14
40.88
40.31
39.85
39.87
40.50
41.57
42.70
43.49
43.72
43.41
42.83
42.22
41.62
40.80
39.38
37.02
33.62
29.38
24.70
20.12
16.02
12.58
9.72
7.07
4.20
0.68
-3.71
-8.88
-14.43
-19.84
-24.66
-28.67
-32.04
-35.20
-38.78
-43.39
-49.51
-57.21
-65.95
-74.39
-80.57
-82.40
-78.36
-68.15
-52.84
-34.62
-16.09
0.52
13.90
23.68
30.17
34.03
35.90
36.35
35.84
34.82
33.76
33.06
33.04
33.80
35.23
37.03
38.82
40.31
41.36
42.06
42.51
42.74
42.58
41.64
39.53
36.03
31.31
25.86
20.42
15.57
11.59
8.28
5.17
1.69
-2.44
-7.20
-12.25
-17.09
-21.35
-24.87
-27.83
-30.72
-34.20
-38.92
-45.21
-52.78
-60.48
-66.48
-68.62
-65.28
-55.95
-41.59
-24.38
-7.05
8.10
19.61
27.11
31.06
32.22
31.40
29.24
26.29
23.05
20.03
17.75
16.52
16.56
17.80
20.01
22.73
25.39
27.40
28.35
28.10
26.80
24.78
22.41
19.81
16.87
13.33
8.95
3.68
-2.19
-8.26
-14.03
-19.21
-23.69
-27.62
-31.28
-34.98
-39.12
-44.05
-50.01
-56.90
-64.03
-70.04
-73.10
-71.53
-64.31
-51.70
-35.20
-17.20
-0.22
13.79
23.80
29.81
32.54
32.99
32.10
30.52
28.60
26.54
24.53
22.87
21.89
21.83
22.63
23.91
25.16
25.94
26.12
25.87
25.41
24.82
23.91
22.30
19.61
15.65
10.47
4.43
-2.06
-8.48
-14.37
-19.46
-23.67
-27.25
-30.77
-34.96
-40.47
-47.66
-56.24
-65.21
-72.88
-77.30
-76.73
-70.25
-58.14
-41.97
-24.13
-7.17
6.89
17.08
23.54
27.16
29.09
30.25
31.11
31.73
31.97
31.77
31.30
30.92
31.00
31.73
33.01
34.48
35.65
36.17
35.82
34.63
32.75
30.33
27.50
24.22
20.45
16.10
11.15
5.78
0.22
-5.20
-10.21
-14.73
-18.81
-22.69
-26.60
-30.85
-35.73
-41.62
-48.71
-56.82
-65.06
-71.83
-75.14
-73.32
-65.64
-52.78
-36.63
-19.69
-4.24
8.35
17.67
24.14
28.50
31.36
33.18
34.14
34.48
34.47
34.51
34.88
35.76
37.07
38.56
39.96
41.02
41.72
42.09
42.19
41.97
41.20
39.58
36.86
33.03
28.31
23.08
17.73
12.44
7.14
1.61
-4.27
-10.43
-16.49
-21.98
-26.53
-30.16
-33.26
-36.61
-41.04
-47.14
-54.98
-63.89
-72.46
-78.78
-80.83
-77.12
-67.29
-52.29
-34.22
-15.70
0.96
14.32
24.07
30.71
35.09
37.94
39.74
40.69
40.98
40.93
40.92
41.30
42.17
43.33
44.38
44.93
44.78
44.06
43.14
42.38
41.90
41.42
40.29
37.85
33.72
28.05
21.56
15.26
10.06
6.44
4.23
2.73
1.02
-1.63
-5.48
-10.24
-15.24
-19.78
-23.50
-26.52
-29.44
-33.09
-38.23
-45.27
-54.05
-63.79
-73.04
-79.96
-82.61
-79.53
-70.29
-55.70
-37.76
-19.02
-1.93
11.91
21.95
28.56
32.63
35.03
36.42
37.07
37.15
36.84
36.44
36.35
36.90
38.20
40.07
42.16
43.98
45.22
45.74
45.58
44.88
43.74
42.07
39.64
36.22
31.71
26.30
20.50
14.97
10.30
6.73
4.05
1.66
-1.18
-4.95
-9.64
-14.76
-19.58
-23.50
-26.37
-28.48
-30.49
-33.16
-37.12
-42.78
-50.10
-58.59
-67.19
-74.23
-77.80
-76.27
-68.87
-56.09
-39.56
-21.67
-4.73
9.53
20.35
27.78
32.35
34.75
35.53
35.12
33.90
32.30
30.79
29.82
29.67
30.41
31.88
33.80
35.83
37.64
38.96
39.48
39.05
37.56
35.08
31.82
28.06
24.07
20.04
16.05
12.09
8.10
4.07
-0.05
-4.24
-8.52
-12.85
-17.12
-21.17
-24.87
-28.20
-31.40
-34.97
-39.54
-45.49
-52.53
-59.48
-64.40
-65.29
-60.73
-50.70
-36.55
-20.58
-5.29
7.46
16.75
22.60
25.57
26.33
25.48
23.49
20.84
18.01
15.53
13.88
13.31
13.87
15.37
17.49
19.78
21.77
23.09
23.49
22.96
21.69
19.96
18.05
16.02
13.78
11.08
7.71
3.66
-0.87
-5.55
-10.06
-14.27
-18.21
-22.01
-25.80
-29.69
-33.77
-38.28
-43.52
-49.70
-56.68
-63.65
-69.15
-71.39
-68.90
-61.10
-48.64
-33.28
-17.33
-2.90
8.64
16.86
22.07
24.99
26.33
26.61
26.14
25.14
23.89
22.81
22.34
22.88
24.53
27.03
29.78
32.01
33.13
32.85
31.34
29.05
26.47
23.87
21.19
18.10
14.24
9.40
3.64
-2.67
-9.05
-15.01
-20.23
-24.63
-28.27
-31.43
-34.45
-37.81
-42.03
-47.48
-54.10
-61.16
-67.21
-70.33
-68.79
-61.70
-49.47
-33.78
-17.05
-1.63
10.87
19.88
25.74
29.24
31.18
32.11
32.35
32.10
31.54
30.92
30.49
30.43
30.82
31.66
32.84
34.19
35.51
36.53
36.98
36.68
35.54
33.51
30.66
27.07
22.79
17.92
12.55
6.82
0.89
-5.08
-10.91
-16.43
-21.51
-26.04
-30.03
-33.67
-37.33
-41.54
-46.82
-53.36
-60.79
-68.06
-73.54
-75.38
-72.18
-63.49
-50.03
-33.60
-16.55
-1.00
11.61
20.81
26.94
30.73
32.91
34.04
34.47
34.45
34.25
34.15
34.38
35.00
35.89
36.83
37.60
38.11
38.34
38.34
38.07
37.40
36.14
34.09
31.20
27.60
23.58
19.47
15.49
11.60
7.61
3.22
-1.68
-6.99
-12.29
-17.10
-21.02
-23.94
-26.10
-27.99
-30.30
-33.67
-38.64
-45.35
-53.34
-61.35
-67.45
-69.53
-66.05
-56.69
-42.58
-25.98
-9.46
4.84
15.86
23.51
28.39
31.31
32.87
33.43
33.22
32.47
31.50
30.70
30.32
30.41
30.84
31.34
31.74
31.99
32.17
32.38
32.60
32.55
31.86
30.18
27.37
23.61
19.38
15.15
11.32
8.01
5.06
2.18
-0.96
-4.53
-8.49
-12.62
-16.61
-20.21
-23.40
-26.41
-29.68
-33.73
-38.95
-45.42
-52.62
-59.46
-64.32
-65.47
-61.61
-52.39
-38.64
-22.21
-5.47
9.42
20.99
28.77
33.14
34.87
34.84
33.73
32.01
30.04
28.12
26.57
25.65
25.50
26.04
27.02
28.08
28.90
29.27
29.16
28.62
27.69
26.37
24.55
22.18
19.23
15.87
12.24
8.53
4.80
0.99
-2.97
-7.14
-11.45
-15.74
-19.83
-23.61
-27.13
-30.62
-34.47
-39.10
-44.77
-51.37
-58.22
-63.99
-67.03
-65.78
-59.42
-48.21
-33.61
-17.77
-2.97
9.15
17.82
23.20
25.95
26.86
26.52
25.30
23.45
21.28
19.21
17.73
17.29
18.11
20.05
22.67
25.35
27.46
28.55
28.53
27.52
25.83
23.68
21.20
18.30
14.85
10.73
5.98
0.75
-4.67
-9.95
-14.81
-19.09
-22.82
-26.19
-29.48
-32.99
-36.94
-41.50
-46.72
-52.51
-58.39
-63.39
-66.11
-65.09
-59.34
-48.87
-34.84
-19.24
-4.25
8.48
18.13
24.73
28.80
30.96
31.70
31.34
30.21
28.60
26.89
25.43
24.52
24.34
24.92
26.12
27.66
29.18
30.23
30.48
29.75
28.07
25.69
22.95
20.08
17.18
14.16
10.83
7.07
2.87
-1.58
-6.02
-10.25
-14.17
-17.87
-21.48
-25.23
-29.32
-34.00
-39.55
-46.14
-53.55
-60.98
-66.97
-69.76
-67.78
-60.31
-47.82
-32.02
-15.24
0.26
12.84
21.90
27.63
30.80
32.30
32.88
33.01
32.92
32.67
32.28
31.83
31.44
31.29
31.45
31.84
32.26
32.49
32.37
31.90
31.13
30.03
28.47
26.25
23.27
19.64
15.66
11.67
7.79
3.92
-0.23
-4.88
-9.99
-15.23
-20.12
-24.26
-27.64
-30.61
-33.83
-38.00
-43.53
-50.36
-57.79
-64.55
-68.98
-69.50
-65.02
-55.46
-41.81
-25.94
-10.05
3.93
14.86
22.48
27.19
29.70
30.65
30.44
29.36
27.73
26.00
24.63
23.99
24.17
24.98
26.02
27.00
27.78
28.42
28.99
29.46
29.63
29.18
27.85
25.60
22.61
19.20
15.73
12.41
9.24
6.03
2.49
-1.51
-5.98
-10.65
-15.09
-18.90
-21.87
-24.16
-26.26
-28.93
-32.93
-38.67
-46.05
-54.17
-61.52
-66.17
-66.36
-61.06
-50.42
-35.81
-19.47
-3.82
9.25
18.78
24.77
27.86
28.91
28.63
27.53
25.92
24.07
22.35
21.15
20.79
21.39
22.84
24.80
26.87
28.70
30.07
30.92
31.24
31.00
30.11
28.47
26.03
22.89
19.22
15.21
11.01
6.65
2.11
-2.61
-7.44
-12.20
-16.62
-20.45
-23.59
-26.13
-28.45
-31.11
-34.75
-39.81
-46.23
-53.19
-59.20
-62.41
-61.18
-54.76
-43.55
-29.09
-13.65
0.54
11.85
19.59
23.91
25.51
25.23
23.71
21.37
18.44
15.24
12.25
10.06
9.24
10.06
12.36
15.54
18.83
21.45
23.00
23.43
23.00
22.01
20.65
18.87
16.52
13.40
9.43
4.69
-0.64
-6.29
-11.94
-17.28
-22.07
-26.12
-29.51
-32.53
-35.65
-39.40
-44.20
-50.09
-56.58
-62.58
-66.55
-66.94
-62.65
-53.53
-40.57
-25.64
-10.93
1.68
11.16
17.38
20.91
22.56
23.03
22.74
21.87
20.61
19.26
18.28
18.11
19.04
21.05
23.80
26.71
29.18
30.72
31.10
30.33
28.65
26.35
23.63
20.55
16.95
12.61
7.41
1.49
-4.69
-10.53
-15.53
-19.59
-22.99
-26.37
-30.43
-35.73
-42.49
-50.46
-58.85
-66.35
-71.34
-72.26
-68.11
-58.87
-45.59
-30.11
-14.56
-0.75
10.19
17.91
22.77
25.47
26.81
27.45
27.76
27.89
27.87
27.81
27.95
28.63
30.09
32.27
34.72
36.73
37.67
37.25
35.62
33.24
30.60
27.94
25.19
22.00
18.06
13.19
7.53
1.43
-4.69
-10.47
-15.71
-20.40
-24.69
-28.86
-33.29
-38.41
-44.62
-51.96
-59.93
-67.36
-72.59
-73.89
-70.05
-60.87
-47.36
-31.43
-15.34
-1.00
10.40
18.58
23.89
27.05
28.79
29.69
30.13
30.31
30.39
30.46
30.67
31.15
31.92
32.90
33.86
34.55
34.75
34.46
33.73
32.72
31.52
30.10
28.30
25.90
22.68
18.53
13.49
7.83
1.97
-3.55
-8.38
-12.38
-15.79
-19.05
-22.67
-27.06
-32.46
-38.92
-46.20
-53.69
-60.32
-64.55
-64.83
-60.04
-50.03
-35.88
-19.65
-3.70
9.94
20.16
26.88
30.71
32.53
33.09
32.87
32.11
31.02
29.92
29.16
29.12
29.94
31.51
33.50
35.49
37.16
38.30
38.82
38.63
37.62
35.65
32.67
28.82
24.38
19.71
15.11
10.66
6.29
1.83
-2.80
-7.51
-12.13
-16.43
-20.27
-23.70
-26.94
-30.44
-34.71
-40.22
-47.18
-55.24
-63.38
-69.92
-72.93
-70.80
-62.89
-49.82
-33.39
-16.04
-0.10
12.80
22.06
27.94
31.20
32.62
32.72
31.75
29.88
27.43
24.92
23.02
22.28
22.96
24.85
27.44
30.07
32.18
33.50
33.97
33.67
32.68
31.01
28.55
25.21
20.98
15.95
10.32
4.41
-1.45
-6.98
-12.02
-16.57
-20.79
-24.88
-29.11
-33.72
-38.96
-45.04
-51.97
-59.38
-66.26
-71.03
-71.90
-67.49
-57.46
-42.80
-25.59
-8.34
6.79
18.57
26.87
32.28
35.61
37.50
38.21
37.81
36.42
34.43
32.47
31.27
31.30
32.58
34.64
36.68
37.95
38.07
37.10
35.45
33.54
31.57
29.42
26.74
23.22
18.73
13.42
7.64
1.75
-3.94
-9.23
-14.05
-18.37
-22.29
-26.00
-29.85
-34.28
-39.71
-46.30
-53.71
-60.92
-66.35
-68.23
-65.14
-56.60
-43.33
-27.04
-9.97
5.79
18.85
28.62
35.23
39.24
41.29
41.93
41.59
40.64
39.43
38.29
37.54
37.32
37.70
38.52
39.56
40.60
41.48
42.10
42.37
42.16
41.22
39.30
36.25
32.22
27.54
22.72
18.07
13.69
9.38
4.79
-0.30
-5.91
-11.76
-17.41
-22.47
-26.73
-30.24
-33.31
-36.46
-40.35
-45.58
-52.40
-60.39
-68.29
-74.19
-75.96
-72.07
-62.19
-47.34
-29.67
-11.73
4.30
17.11
26.34
32.37
35.89
37.59
38.02
37.66
36.92
36.28
36.09
36.58
37.64
38.94
40.06
40.61
40.52
39.98
39.31
38.78
38.41
37.94
36.97
35.14
32.25
28.32
23.66
18.63
13.63
8.97
4.78
0.93
-2.80
-6.77
-11.18
-15.99
-20.88
-25.41
-29.16
-31.99
-34.19
-36.34
-39.28
-43.69
-49.82
-57.22
-64.66
-70.31
-72.21
-68.91
-59.93
-46.07
-29.23
-11.81
3.97
16.63
25.68
31.42
34.61
36.03
36.26
35.61
34.31
32.66
31.09
30.03
29.76
30.31
31.41
32.68
33.80
34.63
35.25
35.85
36.43
36.83
36.63
35.37
32.77
28.87
24.05
18.98
14.28
10.41
7.41
4.89
2.26
-1.03
-5.17
-9.94
-14.81
-19.20
-22.80
-25.71
-28.35
-31.34
-35.24
-40.44
-47.03
-54.65
-62.37
-68.69
-71.77
-70.02
-62.65
-50.12
-34.13
-17.09
-1.37
11.33
20.25
25.55
27.86
27.98
26.61
24.36
21.77
19.28
17.28
16.06
15.80
16.58
18.39
21.02
24.09
27.05
29.33
30.53
30.53
29.49
27.74
25.59
23.15
20.37
17.08
13.12
8.49
3.32
-2.17
-7.74
-13.18
-18.37
-23.24
-27.79
-32.12
-36.39
-40.85
-45.69
-51.00
-56.47
-61.33
-64.35
-64.14
-59.57
-50.28
-36.90
-21.04
-4.82
9.69
20.97
28.36
32.01
32.66
31.26
28.75
25.77
22.71
19.75
17.00
14.67
13.08
12.60
13.43
15.44
18.10
20.73
22.69
23.64
23.61
22.80
21.45
19.62
17.22
14.09
10.21
5.64
0.61
-4.63
-9.86
-14.92
-19.71
-24.14
-28.13
-31.73
-35.14
-38.78
-43.25
-49.02
-56.17
-64.02
-71.04
-75.22
-74.60
-68.09
-55.94
-39.79
-22.12
-5.46
8.30
18.32
24.76
28.43
30.28
31.13
31.42
31.33
30.88
30.13
29.26
28.54
28.24
28.49
29.20
30.11
30.87
31.21
30.98
30.15
28.72
26.73
24.20
21.19
17.79
14.07
10.05
5.72
1.08
-3.77
-8.62
-13.21
-17.37
-21.10
-24.61
-28.22
-32.29
-37.17
-43.10
-50.08
-57.68
-64.87
-70.01
-71.29
-67.35
-57.84
-43.77
-27.22
-10.64
3.88
15.18
23.14
28.35
31.63
33.66
34.76
35.05
34.54
33.36
31.78
30.19
28.98
28.39
28.42
28.87
29.35
29.46
28.95
27.80
26.23
24.50
22.76
20.92
18.68
15.68
11.65
6.68
1.06
-4.74
-10.28
-15.30
-19.73
-23.65
-27.28
-30.86
-34.79
-39.44
-45.07
-51.61
-58.32
-63.87
-66.53
-64.79
-57.92
-46.35
-31.57
-15.73
-0.85
11.64
21.18
27.87
32.15
34.52
35.38
35.11
34.05
32.63
31.22
30.12
29.47
29.33
29.60
30.12
30.67
31.05
31.11
30.81
30.18
29.32
28.25
26.86
24.98
22.38
18.87
14.42
9.12
3.23
-2.86
-8.73
-14.00
-18.47
-22.18
-25.42
-28.65
-32.42
-37.22
-43.30
-50.45
-57.83
-63.97
-67.05
-65.45
-58.38
-46.29
-30.83
-14.37
0.70
12.68
20.92
25.66
27.75
28.08
27.32
25.83
23.82
21.58
19.50
18.10
17.79
18.66
20.44
22.51
24.22
25.13
25.14
24.49
23.51
22.43
21.27
19.81
17.77
14.84
10.86
5.89
0.16
-5.91
-11.89
-17.35
-22.13
-26.27
-30.10
-34.13
-38.87
-44.71
-51.62
-58.98
-65.53
-69.54
-69.32
-63.84
-53.18
-38.65
-22.39
-6.69
6.68
16.83
23.80
28.12
30.48
31.38
31.15
30.01
28.26
26.33
24.72
23.85
23.93
24.83
26.14
27.42
28.26
28.53
28.35
27.90
27.28
26.33
24.66
21.84
17.65
12.23
6.05
-0.21
-5.94
-10.76
-14.63
-17.84
-20.87
-24.31
-28.76
-34.67
-42.25
-51.25
-60.71
-69.04
-74.28
-74.63
-69.09
-57.89
-42.47
-25.12
-8.33
6.04
17.00
24.56
29.40
32.36
34.18
35.22
35.60
35.37
34.69
33.85
33.28
33.29
33.98
35.18
36.56
37.74
38.45
38.60
38.16
37.10
35.31
32.66
29.09
24.74
19.94
15.08
10.45
6.07
1.75
-2.78
-7.66
-12.70
-17.54
-21.74
-25.15
-27.97
-30.79
-34.36
-39.37
-46.11
-54.28
-62.87
-70.28
-74.57
-74.04
-67.81
-56.13
-40.49
-23.12
-6.38
7.95
18.99
26.73
31.72
34.62
35.99
36.29
35.89
35.21
34.69
34.69
35.43
36.85
38.67
40.50
41.95
42.83
43.14
43.08
42.87
42.62
42.16
41.15
39.16
35.89
31.40
26.15
20.78
15.90
11.82
8.39
5.17
1.61
-2.61
-7.51
-12.72
-17.78
-22.30
-26.12
-29.40
-32.61
-36.36
-41.28
-47.83
-55.99
-65.08
-73.66
-79.76
-81.40
-77.23
-67.01
-51.85
-33.89
-15.63
0.73
13.77
23.10
29.08
32.50
34.23
34.91
35.00
34.79
34.52
34.46
34.95
36.17
38.09
40.35
42.44
43.87
44.38
44.09
43.36
42.64
42.07
41.41
40.12
37.59
33.54
28.23
22.35
16.77
12.14
8.63
5.89
3.27
0.20
-3.62
-8.07
-12.72
-17.06
-20.67
-23.40
-25.38
-27.09
-29.21
-32.51
-37.61
-44.71
-53.27
-62.00
-68.99
-72.19
-70.03
-62.00
-48.85
-32.44
-15.19
0.62
13.44
22.64
28.41
31.37
32.25
31.64
29.99
27.78
25.46
23.59
22.67
22.95
24.33
26.44
28.74
30.77
32.31
33.36
34.06
34.45
34.42
33.67
31.89
28.91
24.84
20.02
14.97
10.15
5.81
1.93
-1.73
-5.53
-9.67
-14.12
-18.55
-22.59
-25.92
-28.56
-30.96
-33.74
-37.56
-42.82
-49.48
-56.91
-63.96
-69.01
-70.37
-66.69
-57.46
-43.39
-26.25
-8.45
7.66
20.43
29.28
34.52
36.94
37.38
36.39
34.35
31.52
28.34
25.39
23.29
22.49
23.00
24.48
26.35
28.07
29.36
30.25
30.91
31.40
31.58
31.10
29.55
26.70
22.63
17.73
12.59
7.85
3.88
0.68
-2.12
-5.10
-8.84
-13.48
-18.73
-23.93
-28.43
-31.94
-34.70
-37.36
-40.77
-45.56
-51.88
-59.25
-66.56
-72.17
-74.32
-71.58
-63.35
-50.21
-33.82
-16.49
-0.43
12.80
22.60
29.17
33.16
35.26
36.03
35.88
35.16
34.20
33.37
32.94
33.05
33.61
34.41
35.18
35.70
35.85
35.63
35.11
34.33
33.28
31.80
29.67
26.66
22.75
18.14
13.22
8.45
4.16
0.38
-3.16
-6.86
-11.08
-15.86
-20.96
-25.87
-30.12
-33.49
-36.16
-38.67
-41.75
-46.10
-52.01
-59.07
-66.05
-71.15
-72.41
-68.44
-58.93
-44.80
-28.00
-10.89
4.45
16.64
25.18
30.27
32.60
32.99
32.23
30.96
29.60
28.40
27.49
26.99
26.99
27.54
28.61
29.99
31.42
32.61
33.34
33.45
32.86
31.51
29.34
26.37
22.68
18.44
13.86
9.08
4.20
-0.76
-5.76
-10.76
-15.64
-20.27
-24.55
-28.47
-32.16
-35.92
-40.15
-45.23
-51.20
-57.61
-63.33
-66.82
-66.56
-61.54
-51.73
-38.13
-22.50
-6.84
7.09
18.15
25.88
30.38
32.08
31.58
29.59
26.78
23.80
21.21
19.39
18.55
18.65
19.49
20.72
22.02
23.05
23.62
23.70
23.33
22.59
21.53
20.06
18.00
15.07
11.10
6.09
0.35
-5.64
-11.24
-15.97
-19.64
-22.44
-24.94
-27.92
-32.09
-37.85
-45.02
-52.69
-59.36
-63.27
-62.90
-57.54
-47.49
-34.10
-19.29
-5.02
7.19
16.54
22.87
26.42
27.60
26.80
24.43
20.99
17.14
13.61
11.06
9.91
10.18
11.53
13.36
15.04
16.12
16.48
16.27
15.82
15.34
14.78
13.79
11.86
8.54
3.76
-2.13
-8.40
-14.28
-19.20
-23.06
-26.24
-29.41
-33.37
-38.66
-45.43
-53.29
-61.20
-67.66
-70.98
-69.73
-63.25
-51.93
-37.21
-21.18
-6.02
6.63
16.00
22.19
25.86
27.84
28.75
28.94
28.58
27.80
26.89
26.24
26.25
27.17
28.88
31.03
33.08
34.51
35.06
34.72
33.69
32.20
30.40
28.15
25.20
21.24
16.10
9.89
3.03
-3.85
-10.15
-15.45
-19.70
-23.17
-26.36
-29.81
-33.95
-39.12
-45.43
-52.66
-60.08
-66.39
-69.92
-69.00
-62.68
-51.12
-35.75
-18.80
-2.60
11.07
21.41
28.50
32.97
35.59
36.97
37.58
37.75
37.79
38.01
38.64
39.69
41.02
42.32
43.30
43.75
43.73
43.40
43.03
42.69
42.25
41.38
39.64
36.81
32.92
28.25
23.32
18.56
14.21
10.18
6.17
1.76
-3.24
-8.73
-14.37
-19.64
-24.14
-27.76
-30.72
-33.54
-36.95
-41.62
-48.02
-56.12
-65.13
-73.47
-79.10
-79.95
-74.79
-63.63
-47.89
-29.94
-12.33
2.94
14.85
23.37
29.09
32.84
35.30
36.93
37.96
38.57
38.95
39.34
39.99
41.08
42.57
44.25
45.79
46.84
47.20
46.84
45.87
44.46
42.79
40.91
38.80
36.35
33.39
29.83
25.69
21.22
16.82
12.87
9.57
6.84
4.31
1.55
-1.80
-5.78
-10.25
-14.90
-19.47
-23.86
-28.00
-31.91
-35.65
-39.34
-43.29
-47.93
-53.70
-60.70
-68.39
-75.41
-79.85
-79.82
-74.10
-62.75
-47.10
-29.39
-12.03
3.11
15.09
23.78
29.68
33.43
35.59
36.60
36.82
36.61
36.39
36.52
37.24
38.54
40.17
41.68
42.61
42.71
42.04
40.98
39.99
39.34
38.96
38.40
37.08
34.51
30.60
25.65
20.26
15.09
10.66
7.21
4.68
2.67
0.66
-1.85
-5.17
-9.21
-13.61
-17.84
-21.46
-24.33
-26.70
-29.07
-32.04
-36.18
-41.79
-48.80
-56.57
-63.93
-69.24
-70.78
-67.30
-58.45
-45.07
-28.99
-12.49
2.32
14.09
22.40
27.56
30.26
31.23
30.96
29.82
28.13
26.31
24.85
24.22
24.64
26.01
27.88
29.73
31.19
32.17
32.81
33.31
33.68
33.65
32.73
30.49
26.75
21.76
16.21
10.91
6.54
3.37
1.15
-0.75
-3.06
-6.25
-10.35
-14.84
-18.98
-22.16
-24.18
-25.41
-26.67
-28.90
-32.87
-38.86
-46.50
-54.80
-62.22
-66.98
-67.52
-62.89
-53.16
-39.53
-23.97
-8.72
4.35
14.22
20.82
24.72
26.78
27.74
28.09
28.11
27.97
27.89
28.11
28.78
29.87
31.16
32.31
33.06
33.30
33.09
32.66
32.23
31.93
31.65
31.09
29.86
27.61
24.28
20.15
15.82
11.88
8.73
6.29
4.04
1.33
-2.33
-6.99
-12.21
-17.29
-21.60
-24.81
-26.97
-28.49
-30.02
-32.19
-35.55
-40.42
-46.72
-53.75
-60.24
-64.48
-64.81
-60.19
-50.63
-37.32
-22.28
-7.75
4.47
13.42
19.04
21.88
22.72
22.35
21.27
19.87
18.45
17.28
16.62
16.68
17.54
19.11
21.13
23.24
25.09
26.38
26.98
26.88
26.13
24.79
22.85
20.30
17.13
13.39
9.20
4.68
-0.03
-4.82
-9.59
-14.18
-18.39
-22.10
-25.34
-28.35
-31.64
-35.75
-41.03
-47.37
-53.97
-59.52
-62.48
-61.55
-56.16
-46.71
-34.42
-20.96
-8.03
3.16
11.97
18.27
22.29
24.33
24.66
23.57
21.40
18.59
15.69
13.23
11.61
10.94
11.02
11.40
11.63
11.44
10.85
10.11
9.45
8.96
8.39
7.27
5.13
1.70
-2.90
-8.23
-13.65
-18.63
-22.84
-26.32
-29.41
-32.66
-36.64
-41.79
-48.18
-55.38
-62.36
-67.58
-69.36
-66.47
-58.55
-46.37
-31.68
-16.61
-3.06
7.79
15.62
20.77
23.85
25.43
25.90
25.53
24.53
23.22
21.90
20.89
20.34
20.20
20.24
20.19
19.92
19.46
19.06
18.91
18.93
18.74
17.69
15.22
11.04
5.38
-1.09
-7.52
-13.19
-17.71
-21.23
-24.30
-27.75
-32.41
-38.72
-46.53
-54.89
-62.22
-66.62
-66.50
-61.07
-50.66
-36.70
-21.28
-6.55
5.86
15.17
21.47
25.39
27.70
29.00
29.59
29.53
28.90
27.89
26.91
26.37
26.53
27.33
28.38
29.23
29.56
29.37
28.92
28.52
28.27
27.84
26.64
24.02
19.63
13.63
6.64
-0.44
-6.82
-12.13
-16.48
-20.42
-24.70
-30.04
-36.91
-45.29
-54.57
-63.50
-70.31
-73.21
-70.85
-62.87
-50.10
-34.33
-17.77
-2.45
10.28
19.91
26.66
31.07
33.84
35.48
36.38
36.71
36.63
36.27
35.82
35.52
35.54
35.95
36.60
37.24
37.55
37.26
36.29
34.69
32.63
30.26
27.63
24.66
21.21
17.10
12.29
6.89
1.17
-4.46
-9.63
-14.13
-18.00
-21.52
-25.19
-29.54
-35.09
-42.17
-50.71
-60.09
-69.05
-75.78
-78.37
-75.41
-66.52
-52.60
-35.62
-18.00
-1.91
11.31
21.30
28.42
33.32
36.64
38.80
40.05
40.64
40.78
40.74
40.69
40.72
40.86
41.10
41.45
41.96
42.66
43.41
43.92
43.80
42.67
40.36
36.92
32.61
27.82
22.86
17.93
13.04
8.10
2.96
-2.43
-8.00
-13.55
-18.76
-23.30
-27.02
-30.08
-32.93
-36.31
-40.98
-47.45
-55.66
-64.74
-73.11
-78.71
-79.60
-74.60
-63.80
-48.55
-31.13
-13.97
0.99
12.79
21.41
27.43
31.53
34.24
35.90
36.78
37.22
37.67
38.47
39.81
41.57
43.39
44.81
45.57
45.60
45.16
44.55
43.94
43.28
42.23
40.32
37.26
33.06
28.08
22.91
18.10
13.94
10.36
6.99
3.42
-0.64
-5.18
-9.92
-14.43
-18.31
-21.37
-23.78
-25.99
-28.69
-32.62
-38.30
-45.80
-54.47
-62.87
-69.02
-70.89
-67.07
-57.37
-42.94
-25.97
-8.99
5.91
17.53
25.71
30.90
33.86
35.22
35.44
34.88
33.91
32.96
32.47
32.73
33.80
35.45
37.32
38.97
40.12
40.70
40.83
40.70
40.39
39.77
38.52
36.24
32.76
28.21
23.06
17.95
13.38
9.55
6.34
3.29
-0.11
-4.20
-8.95
-14.02
-18.89
-23.05
-26.25
-28.64
-30.71
-33.20
-36.83
-42.08
-48.90
-56.60
-63.82
-68.77
-69.65
-65.28
-55.46
-41.25
-24.61
-7.90
6.90
18.52
26.67
31.70
34.30
35.13
34.70
33.33
31.35
29.14
27.09
25.56
24.78
24.80
25.53
26.82
28.48
30.28
31.96
33.16
33.51
32.74
30.84
27.99
24.59
20.96
17.30
13.49
9.27
4.42
-1.11
-7.04
-12.88
-18.15
-22.54
-26.04
-28.98
-31.84
-35.18
-39.45
-44.84
-51.10
-57.40
-62.36
-64.32
-61.82
-54.22
-42.00
-26.76
-10.77
3.83
15.57
23.89
29.01
31.54
32.05
30.94
28.54
25.19
21.43
17.92
15.29
13.97
14.03
15.23
17.07
18.98
20.44
21.20
21.28
20.84
20.03
18.82
16.92
13.90
9.50
3.81
-2.69
-9.24
-15.15
-20.02
-23.91
-27.24
-30.57
-34.51
-39.50
-45.74
-53.00
-60.49
-66.85
-70.36
-69.41
-63.11
-51.72
-36.69
-20.26
-4.70
8.23
17.76
23.94
27.33
28.60
28.28
26.74
24.36
21.60
19.03
17.23
16.51
16.89
18.11
19.75
21.45
22.96
24.25
25.30
26.09
26.50
26.24
24.99
22.50
18.68
13.61
7.62
1.16
-5.27
-11.24
-16.53
-21.23
-25.76
-30.73
-36.85
-44.48
-53.42
-62.67
-70.60
-75.27
-75.04
-69.21
-58.20
-43.52
-27.26
-11.45
2.38
13.46
21.69
27.38
30.98
32.94
33.64
33.42
32.58
31.42
30.24
29.35
29.01
29.36
30.34
31.61
32.69
33.15
32.74
31.52
29.81
27.90
25.86
23.47
20.31
15.94
10.28
3.64
-3.34
-9.89
-15.44
-19.81
-23.23
-26.28
-29.64
-33.95
-39.65
-46.79
-54.95
-63.10
-69.67
-72.91
-71.33
-64.33
-52.41
-37.14
-20.70
-5.18
7.92
17.95
24.99
29.53
32.19
33.54
33.97
33.79
33.27
32.68
32.19
32.02
32.26
32.92
33.93
35.19
36.52
37.79
38.85
39.49
39.49
38.58
36.61
33.56
29.62
25.14
20.51
15.95
11.45
6.79
1.69
-4.03
-10.27
-16.64
-22.57
-27.55
-31.39
-34.32
-36.97
-40.24
-44.91
-51.39
-59.30
-67.51
-74.22
-77.45
-75.63
-68.10
-55.43
-39.25
-21.78
-5.21
8.78
19.41
26.70
31.30
33.99
35.50
36.24
36.40
36.12
35.57
35.03
34.88
35.37
36.53
38.15
39.87
41.37
42.48
43.17
43.50
43.42
42.78
41.27
38.68
34.88
30.09
24.77
19.55
14.95
11.16
7.90
4.55
0.45
-4.76
-10.94
-17.46
-23.51
-28.43
-32.01
-34.56
-36.81
-39.64
-43.85
-49.82
-57.38
-65.65
-73.07
-77.75
-77.92
-72.53
-61.62
-46.43
-29.06
-11.85
3.20
14.91
23.00
27.90
30.42
31.41
31.52
31.28
31.07
31.17
31.83
33.13
35.02
37.20
39.29
40.89
41.77
41.95
41.66
41.20
40.72
40.14
39.10
37.14
33.94
29.51
24.27
18.88
13.94
9.77
6.26
2.96
-0.65
-4.90
-9.83
-15.12
-20.31
-24.99
-28.99
-32.49
-35.92
-39.90
-45.01
-51.57
-59.37
-67.54
-74.53
-78.41
-77.46
-70.71
-58.42
-42.12
-24.12
-6.87
7.80
18.98
26.69
31.53
34.18
35.25
35.09
34.06
32.56
31.09
30.12
29.93
30.55
31.70
33.02
34.15
34.99
35.60
36.19
36.88
37.57
37.85
37.13
34.91
31.02
25.86
20.23
15.03
10.89
7.80
5.22
2.29
-1.66
-6.76
-12.57
-18.28
-23.14
-26.79
-29.43
-31.71
-34.49
-38.55
-44.33
-51.78
-60.17
-68.12
-73.74
-75.10
-70.78
-60.49
-45.31
-27.44
-9.54
6.04
17.88
25.69
29.99
31.72
31.74
30.69
28.98
26.93
24.88
23.26
22.46
22.75
24.19
26.54
29.42
32.35
34.88
36.73
37.71
37.76
36.79
34.75
31.62
27.53
22.77
17.72
12.71
7.93
3.34
-1.20
-5.81
-10.53
-15.26
-19.85
-24.16
-28.17
-32.03
-36.07
-40.72
-46.34
-52.94
-59.91
-65.98
-69.37
-68.35
-61.93
-50.31
-34.96
-18.16
-2.28
10.93
20.70
27.08
30.61
31.88
31.31
29.19
25.91
22.07
18.48
15.96
15.06
15.90
18.09
20.95
23.67
25.64
26.60
26.61
25.97
24.95
23.65
21.93
19.47
15.97
11.33
5.77
-0.24
-6.12
-11.49
-16.17
-20.32
-24.23
-28.26
-32.77
-38.13
-44.59
-52.15
-60.23
-67.59
-72.47
-73.03
-68.05
-57.44
-42.44
-25.24
-8.33
6.24
17.34
24.81
29.12
30.97
30.92
29.39
26.67
23.20
19.65
16.81
15.33
15.51
17.17
19.64
22.14
24.02
25.02
25.27
25.08
24.71
24.15
23.14
21.21
18.00
13.35
7.43
0.71
-6.20
-12.74
-18.57
-23.64
-28.18
-32.57
-37.22
-42.49
-48.68
-55.83
-63.56
-70.93
-76.46
-78.38
-75.28
-66.62
-53.08
-36.41
-18.91
-2.69
10.77
20.92
27.86
32.20
34.58
35.61
35.72
35.16
34.16
32.95
31.87
31.32
31.63
32.84
34.64
36.50
37.83
38.28
37.89
36.94
35.75
34.49
33.05
31.08
28.18
24.06
18.65
12.15
5.01
-2.23
-9.02
-15.02
-20.17
-24.73
-29.23
-34.28
-40.47
-48.12
-57.11
-66.71
-75.42
-81.27
-82.19
-76.79
-64.93
-48.02
-28.66
-9.81
6.16
18.11
26.23
31.52
35.10
37.64
39.29
39.94
39.65
38.78
37.99
37.88
38.68
40.23
42.03
43.59
44.70
45.46
46.13
46.93
47.76
48.15
47.44
45.05
40.76
34.90
28.18
21.45
15.32
9.96
5.05
0.08
-5.40
-11.47
-17.87
-24.06
-29.50
-33.92
-37.38
-40.38
-43.68
-48.11
-54.28
-62.27
-71.44
-80.32
-86.90
-89.10
-85.42
-75.44
-60.04
-41.21
-21.42
-3.00
12.43
24.20
32.43
37.76
40.98
42.75
43.59
43.89
43.95
44.06
44.40
45.05
45.91
46.80
47.47
47.76
47.65
47.25
46.82
46.47
46.12
45.44
43.88
41.00
36.68
31.28
25.51
20.21
15.86
12.36
9.14
5.40
0.55
-5.42
-12.00
-18.38
-23.82
-28.04
-31.27
-34.16
-37.55
-42.20
-48.56
-56.63
-65.89
-75.15
-82.66
-86.46
-84.75
-76.65
-62.49
-43.97
-23.67
-4.31
11.95
24.11
32.26
37.30
40.28
42.00
42.85
42.90
42.23
41.16
40.20
39.83
40.35
41.66
43.30
44.76
45.70
46.11
46.17
46.12
45.97
45.42
43.99
41.14
36.66
30.77
24.16
17.73
12.21
7.88
4.38
0.99
-3.04
-8.04
-13.85
-19.83
-25.30
-29.85
-33.52
-36.75
-40.24
-44.69
-50.59
-58.07
-66.64
-75.08
-81.45
-83.55
-79.57
-68.84
-52.33
-32.40
-12.13
5.76
19.63
29.18
35.06
38.26
39.55
39.31
37.79
35.35
32.67
30.57
29.71
30.28
31.98
34.13
36.06
37.42
38.20
38.63
38.88
38.89
38.32
36.73
33.84
29.74
24.82
19.65
14.65
9.98
5.50
0.98
-3.78
-8.76
-13.73
-18.41
-22.60
-26.24
-29.53
-32.82
-36.61
-41.44
-47.69
-55.34
-63.67
-71.18
-75.83
-75.60
-69.23
-56.77
-39.64
-20.32
-1.54
14.47
26.41
34.03
37.83
38.62
37.25
34.41
30.70
26.74
23.16
20.58
19.46
19.95
21.86
24.65
27.62
30.10
31.61
31.97
31.32
29.97
28.22
26.22
23.86
20.83
16.81
11.61
5.34
-1.59
-8.57
-15.01
-20.44
-24.75
