1523291262.00
64.000000
-0.00
-0.00
-0.00
-0.00
-0.00
-0.00
-0.00
-0.00
-0.00
-0.00
0.00
0.01
0.01
-0.00
-0.03
-0.05
-0.05
0.00
0.13
0.36
0.66
1.01
1.37
1.72
2.06
2.40
2.79
3.24
3.80
4.42
5.06
5.66
6.20
6.68
7.15
7.68
8.31
9.14
10.09
11.04
11.88
12.56
13.14
13.76
14.65
15.96
17.91
20.32
22.90
25.38
27.58
29.57
31.68
34.32
37.81
42.54
48.15
54.10
59.83
64.97
69.58
74.14
79.34
85.71
93.76
103.00
112.62
121.73
129.77
136.75
143.30
150.75
157.77
166.64
177.95
191.79
206.97
220.57
228.25
225.36
208.53
176.87
132.76
80.05
23.07
-34.94
-92.44
-149.16
-205.23
-260.37
-313.74
-363.86
-409.81
-450.87
-486.45
-515.66
-537.12
-549.07
-549.77
-538.13
-513.91
-478.32
-433.46
-381.97
-326.47
-269.22
-211.95
-155.90
-102.11
-51.46
-4.90
36.68
72.62
102.65
126.92
145.93
160.39
171.01
178.41
182.99
185.04
184.79
182.50
178.54
173.31
167.21
160.60
153.72
146.72
139.67
132.60
125.57
118.64
111.87
105.34
99.10
93.18
87.61
82.39
77.53
73.03
68.91
65.17
61.83
58.88
56.34
54.18
52.41
50.97
49.84
48.91
48.08
47.22
46.14
44.68
42.66
39.95
36.46
32.17
27.11
21.37
15.12
8.59
2.04
-4.26
-10.06
-15.15
-19.36
-22.59
-24.81
-26.04
-26.38
-25.93
-24.84
-23.25
-21.32
-19.15
-16.83
-14.43
-11.97
-9.50
-7.03
-4.56
-2.10
0.38
2.90
5.47
8.11
10.88
13.71
16.61
19.56
22.56
25.64
28.81
32.10
35.57
39.27
43.15
47.17
51.30
55.56
59.96
64.53
69.29
74.31
79.69
85.24
90.90
96.59
102.29
107.97
113.63
119.28
124.95
130.69
136.22
141.33
145.80
149.39
151.84
152.76
151.67
147.89
142.72
136.66
130.03
123.05
115.90
108.71
101.61
94.71
88.12
82.02
76.20
70.60
65.16
59.87
54.74
49.80
45.10
40.71
36.75
33.09
29.67
26.47
23.45
20.65
18.06
15.71
13.64
11.92
10.44
9.16
8.03
7.03
6.15
5.36
4.68
4.08
3.58
3.08
2.54
1.90
1.17
0.36
-0.49
-1.35
-2.15
-2.89
-3.59
-4.28
-4.99
-5.72
-6.45
-7.16
-7.84
-8.46
-9.08
-9.77
-10.60
-11.64
-12.87
-14.24
-15.62
-16.94
-18.14
-19.28
-20.53
-22.07
-24.06
-26.52
-29.32
-32.23
-35.04
-37.66
-40.21
-43.05
-46.55
-51.04
-56.54
-62.79
-69.32
-75.65
-81.59
-87.30
-93.32
-100.29
-108.73
-118.75
-129.97
-141.77
-153.49
-164.78
-175.71
-186.74
-198.65
-212.33
-228.67
-248.28
-270.98
-295.37
-318.68
-337.21
-347.40
-347.09
-336.24
-316.94
-292.50
-266.23
-240.40
-216.06
-193.33
-172.12
-152.57
-135.02
-119.71
-106.50
-94.82
-83.97
-73.54
-63.61
-54.77
-47.74
-43.00
-40.46
-39.41
-38.83
-37.77
-35.82
-33.26
-30.90
-29.80
-30.71
-33.80
-38.41
-43.09
-45.95
-45.10
-39.17
-27.85
-12.01
6.41
24.99
41.45
54.30
63.03
68.01
70.06
69.94
68.12
64.79
60.04
54.20
47.82
41.72
36.70
33.27
31.52
31.14
31.57
32.31
32.99
33.50
33.82
33.93
33.62
32.56
30.36
26.82
22.00
16.30
10.34
4.72
-0.18
-4.33
-8.03
-11.83
-16.36
-22.10
-29.23
-37.41
-45.64
-52.38
-55.74
-54.12
-46.64
-33.59
-16.43
2.61
21.16
37.30
49.91
58.75
64.13
66.65
66.85
65.19
62.05
57.85
53.05
48.19
43.70
39.81
36.55
33.77
31.35
29.25
27.56
26.42
25.85
25.69
25.49
24.73
22.90
19.70
15.16
9.57
3.48
-2.51
-7.91
-12.52
-16.50
-20.36
-24.82
-30.52
-37.81
-46.34
-55.05
-62.17
-65.64
-63.74
-55.67
-41.89
-24.08
-4.62
14.09
30.25
42.95
52.10
58.06
61.33
62.26
61.12
58.18
53.82
48.59
43.12
38.00
33.69
30.36
28.00
26.41
25.36
24.69
24.31
24.20
24.30
24.44
24.28
23.41
21.40
17.99
13.21
7.39
1.10
-4.98
-10.35
-14.83
-18.62
-22.28
-26.50
-31.91
-38.84
-47.17
-56.19
-64.55
-70.42
-71.84
-67.31
-56.39
-39.97
-20.19
0.21
18.67
33.53
44.22
51.09
54.92
56.47
56.20
54.40
51.27
47.16
42.60
38.18
34.40
31.53
29.60
28.45
27.85
27.61
27.63
27.84
28.17
28.45
28.41
27.77
26.27
23.80
20.40
16.18
11.30
5.94
0.28
-5.46
-11.09
-16.42
-21.41
-26.21
-31.12
-36.57
-42.92
-50.25
-58.11
-65.41
-70.50
-71.55
-67.14
-56.77
-41.21
-22.34
-2.66
15.45
30.33
41.29
48.53
52.69
54.42
54.13
52.02
48.27
43.29
37.76
32.52
28.29
25.45
23.90
23.21
22.85
22.47
21.99
21.55
21.36
21.41
21.43
20.90
19.21
15.99
11.20
5.30
-0.99
-6.85
-11.73
-15.50
-18.52
-21.44
-24.98
-29.75
-35.95
-43.37
-51.27
-58.40
-63.17
-63.93
-59.45
-49.36
-34.44
-16.46
2.21
19.34
33.38
43.70
50.47
54.29
55.76
55.36
53.45
50.32
46.40
42.12
37.92
34.05
30.69
27.97
26.03
25.09
25.27
26.52
28.50
30.58
31.98
32.08
30.52
27.37
23.10
18.37
13.79
9.74
6.25
2.99
-0.48
-4.52
-9.25
-14.43
-19.60
-24.28
-28.16
-31.22
-33.75
-36.30
-39.48
-43.84
-49.54
-56.16
-62.44
-66.54
-66.43
-60.68
-49.10
-32.94
-14.55
3.41
18.82
30.68
39.02
44.53
47.95
49.75
50.07
48.95
46.61
43.45
40.04
36.86
34.19
32.12
30.59
29.56
29.05
29.13
29.80
30.88
32.00
32.72
32.61
31.45
29.21
26.07
22.35
18.39
14.47
10.80
7.43
4.33
1.34
-1.75
-5.14
-9.00
-13.31
-17.85
-22.24
-26.07
-29.07
-31.24
-32.90
-34.64
-37.08
-40.71
-45.57
-51.22
-56.64
-60.43
-61.13
-57.60
-49.40
-37.04
-21.84
-5.66
9.57
22.38
31.90
37.99
40.98
41.48
40.12
37.50
34.14
30.51
26.99
23.84
21.18
19.06
17.47
16.43
16.02
16.28
17.18
18.50
19.87
20.88
21.16
20.57
19.13
17.01
14.38
11.35
7.95
4.17
-0.01
-4.48
-9.07
-13.45
-17.35
-20.52
-22.97
-24.91
-26.78
-29.13
-32.33
-36.46
-41.12
-45.43
-48.22
-48.28
-44.69
-37.12
-26.02
-12.52
1.74
15.08
26.09
33.99
38.63
40.41
39.98
38.00
35.03
31.43
27.47
23.49
19.77
16.67
14.41
13.02
12.35
12.14
12.15
12.29
12.61
13.20
14.05
14.96
15.51
15.23
13.87
11.46
8.39
5.19
2.23
-0.35
-2.75
-5.28
-8.27
-11.81
-15.80
-19.96
-23.94
-27.47
-30.33
-32.50
-34.21
-35.87
-38.06
-41.28
-45.65
-50.64
-55.14
-57.56
-56.40
-50.71
-40.51
-26.86
-11.56
3.39
16.26
26.05
32.54
36.09
37.37
37.10
35.80
33.79
31.29
28.47
25.55
22.75
20.28
18.28
16.85
15.93
15.49
15.47
15.84
16.54
17.43
18.26
18.68
18.38
17.17
15.08
12.36
9.36
6.43
3.78
1.43
-0.79
-3.08
-5.63
-8.48
-11.56
-14.69
-17.68
-20.35
-22.63
-24.55
-26.27
-28.04
-30.19
-33.03
-36.76
-41.26
-46.00
-49.95
-51.79
-50.24
-44.49
-34.64
-21.72
-7.43
6.30
17.91
26.57
32.19
35.16
36.11
35.56
33.91
31.51
28.66
25.69
22.88
20.42
18.34
16.61
15.20
14.18
13.67
13.76
14.48
15.68
17.06
18.22
18.82
18.66
17.71
16.07
13.94
11.51
8.97
6.43
3.97
1.60
-0.80
-3.34
-6.22
-9.50
-13.11
-16.70
-19.86
-22.24
-23.79
-24.72
-25.53
-26.71
-28.66
-31.49
-35.04
-38.87
-42.23
-44.19
-43.76
-40.14
-33.04
-22.92
-10.97
1.22
12.07
20.50
26.06
28.97
29.77
29.04
27.23
24.64
21.52
18.10
14.69
11.62
9.11
7.30
6.20
5.73
5.80
6.32
7.21
8.29
9.36
10.18
10.55
10.38
9.71
8.68
7.32
5.63
3.49
0.81
-2.36
-5.82
-9.25
-12.37
-15.11
-17.58
-20.06
-22.81
-26.06
-29.84
-33.99
-38.05
-41.32
-42.85
-41.71
-37.25
-29.45
-19.01
-7.16
4.58
14.88
22.87
28.22
31.10
31.88
31.07
29.14
26.56
23.72
20.89
18.22
15.77
13.58
11.79
10.54
9.97
10.11
10.79
11.73
12.56
12.99
12.86
12.11
10.77
8.95
6.73
4.21
1.45
-1.53
-4.70
-8.06
-11.48
-14.79
-17.83
-20.49
-22.79
-24.95
-27.33
-30.25
-33.93
-38.29
-42.82
-46.63
-48.58
-47.55
-42.83
-34.42
-23.09
-10.30
2.23
12.96
20.93
25.92
28.32
28.85
28.21
26.90
25.15
23.09
20.82
18.51
16.39
14.63
13.30
12.39
11.87
11.67
11.77
12.14
12.71
13.27
13.60
13.48
12.77
11.55
9.91
7.98
5.83
3.42
0.63
-2.62
-6.21
-9.90
-13.34
-16.26
-18.53
-20.25
-21.74
-23.41
-25.74
-29.06
-33.44
-38.43
-43.10
-46.12
-46.16
-42.36
-34.71
-24.10
-12.08
-0.33
9.77
17.43
22.53
25.37
26.48
26.40
25.57
24.36
23.00
21.60
20.18
18.68
17.09
15.47
13.92
12.66
11.87
11.70
12.12
13.01
14.12
15.08
15.53
15.22
14.10
12.34
10.27
8.20
6.36
4.72
3.08
1.14
-1.33
-4.34
-7.70
-11.07
-14.10
-16.64
-18.79
-20.85
-23.24
-26.30
-30.13
-34.47
-38.65
-41.71
-42.53
-40.26
-34.50
-25.60
-14.57
-2.91
7.90
16.68
22.87
26.50
28.03
28.04
27.05
25.40
23.28
20.85
18.28
15.82
13.70
12.11
11.09
10.54
10.38
10.49
10.86
11.47
12.24
12.99
13.45
13.34
12.51
10.97
8.83
6.24
3.29
0.06
-3.38
-6.94
-10.41
-13.56
-16.27
-18.51
-20.43
-22.40
-24.82
-28.01
-32.04
-36.48
-40.45
-42.78
-42.36
-38.52
-31.34
-21.64
-10.76
-0.19
8.85
15.73
20.40
23.23
24.70
25.14
24.69
23.34
21.10
18.24
15.21
12.53
10.60
9.48
8.95
8.66
8.33
7.85
7.32
6.92
6.77
6.80
6.77
6.32
5.09
2.91
-0.14
-3.79
-7.59
-11.14
-14.20
-16.70
-18.85
-20.90
-23.20
-26.06
-29.71
-34.15
-39.12
-43.91
-47.48
-48.65
-46.40
-40.28
-30.65
-18.60
-5.72
6.32
16.25
23.38
27.68
29.57
29.73
28.82
27.33
25.56
23.62
21.56
19.45
17.41
15.66
14.43
13.87
14.06
14.89
16.15
17.58
18.86
19.74
19.99
19.49
18.24
16.32
13.92
11.20
8.26
5.09
1.58
-2.39
-6.84
-11.59
-16.36
-20.85
-24.91
-28.64
-32.39
-36.62
-41.66
-47.46
-53.40
-58.34
-60.87
-59.78
-54.39
-44.92
-32.39
-18.35
-4.47
7.87
17.83
25.11
29.85
32.44
33.36
33.06
31.93
30.31
28.44
26.54
24.78
23.26
22.06
21.15
20.50
20.16
20.22
20.81
21.96
23.57
25.29
26.62
27.06
26.32
24.36
21.50
18.15
14.72
11.39
8.06
4.49
0.40
-4.32
-9.48
-14.68
-19.47
-23.47
-26.64
-29.27
-31.91
-35.14
-39.47
-44.91
-50.96
-56.55
-60.17
-60.35
-56.05
-47.09
-34.26
-19.18
-3.79
10.16
21.45
29.66
34.89
37.67
38.58
38.17
36.85
34.92
32.67
30.37
28.27
26.54
25.28
24.48
24.06
23.91
24.01
24.40
25.13
26.21
27.43
28.43
28.74
28.01
26.08
23.15
19.62
15.99
12.62
9.61
6.87
4.09
0.99
-2.55
-6.50
-10.60
-14.57
-18.08
-21.02
-23.46
-25.68
-28.11
-31.23
-35.42
-40.72
-46.73
-52.47
-56.56
-57.52
-54.22
-46.32
-34.43
-20.02
-4.95
8.99
20.55
29.14
34.83
38.03
39.25
38.94
37.42
34.99
31.93
28.60
25.37
22.55
20.37
18.89
18.14
18.01
18.38
19.06
19.83
20.43
20.65
20.35
19.53
18.28
16.64
14.63
12.17
9.18
5.70
1.88
-2.01
-5.73
-9.14
-12.25
-15.19
-18.14
-21.26
-24.77
-28.95
-33.98
-39.81
-45.83
-50.84
-53.22
-51.43
-44.64
-33.13
-18.36
-2.48
12.29
24.32
32.81
37.85
39.96
39.83
38.05
35.10
31.43
27.49
23.73
20.46
17.82
15.76
14.14
12.85
11.92
11.46
11.66
12.52
13.87
15.26
16.20
16.25
15.24
13.23
10.52
7.33
3.87
0.14
-3.86
-8.11
-12.44
-16.59
-20.32
-23.54
-26.44
-29.34
-32.74
-37.06
-42.59
-49.23
-56.42
-62.99
-67.39
-68.04
-63.82
-54.49
-40.93
-24.89
-8.46
6.51
18.83
28.07
34.39
38.26
40.13
40.43
39.49
37.68
35.34
32.78
30.17
27.54
24.96
22.55
20.59
19.42
19.28
20.22
21.96
23.97
25.60
26.32
25.86
24.22
21.65
18.50
15.08
11.55
7.89
3.98
-0.34
-5.14
-10.34
-15.74
-21.03
-25.95
-30.32
-34.19
-37.89
-41.92
-46.82
-52.86
-59.73
-66.40
-71.25
-72.42
-68.53
-59.08
-44.75
-27.28
-8.89
8.33
22.84
33.86
41.35
45.70
47.48
47.31
45.72
43.19
40.10
36.77
33.43
30.25
27.31
24.71
22.57
21.03
20.31
20.57
21.76
23.62
25.62
27.10
27.46
26.45
24.21
21.21
18.02
14.96
12.08
9.05
5.44
0.99
-4.22
-9.81
-15.27
-20.23
-24.56
-28.46
-32.28
-36.50
-41.49
-47.55
-54.62
-62.17
-69.03
-73.53
-73.84
-68.62
-57.56
-41.58
-22.65
-3.21
14.53
29.06
39.77
46.74
50.47
51.60
50.75
48.48
45.33
41.74
38.09
34.61
31.40
28.48
25.91
23.79
22.34
21.76
22.13
23.27
24.72
25.92
26.30
25.51
23.49
20.49
16.95
13.31
9.86
6.65
3.47
-0.03
-4.15
-8.98
-14.27
-19.58
-24.43
-28.55
-32.00
-35.26
-38.97
-43.77
-49.95
-57.19
-64.45
-70.11
-72.25
-69.31
-60.65
-46.87
-29.68
-11.49
5.44
19.51
30.09
37.31
41.63
43.52
43.27
41.07
37.20
32.24
26.95
22.17
18.51
16.20
15.05
14.61
14.43
14.26
14.12
14.23
14.82
15.87
17.06
17.88
17.78
16.42
13.73
9.92
5.35
0.40
-4.62
-9.47
-14.04
-18.32
-22.47
-26.85
-31.97
-38.26
-45.85
-54.21
-62.18
-68.00
-69.80
-66.19
-56.71
-42.13
-24.22
-5.28
12.44
27.31
38.51
45.95
50.06
51.43
50.71
48.50
45.27
41.45
37.41
33.43
29.76
26.60
24.19
22.65
22.08
22.45
23.54
24.98
26.31
27.06
26.87
25.54
23.13
19.88
16.11
12.09
7.90
3.47
-1.39
-6.77
-12.59
-18.55
-24.22
-29.30
-33.73
-37.77
-41.96
-46.98
-53.36
-61.26
-70.16
-78.69
-84.79
-86.24
-81.38
-69.80
-52.62
-32.18
-11.28
7.63
23.06
34.51
42.26
46.94
49.15
49.44
48.28
46.16
43.50
40.65
37.78
34.97
32.26
29.76
27.70
26.39
26.11
26.99
28.88
31.24
33.31
34.20
33.35
30.66
26.52
21.70
16.93
12.71
9.03
5.55
1.72
-2.87
-8.31
-14.38
-20.60
-26.47
-31.71
-36.35
-40.78
-45.68
-51.77
-59.51
-68.75
-78.49
-86.89
-91.66
-90.71
-82.87
-68.41
-48.96
-27.11
-5.59
13.39
28.59
39.71
47.08
51.26
52.87
52.47
50.58
47.72
44.42
41.07
37.89
34.97
32.33
30.02
28.29
27.43
27.68
29.04
31.18
33.48
35.20
35.78
34.95
32.78
29.59
25.79
21.72
17.51
13.14
8.39
3.06
-2.95
-9.45
-16.06
-22.27
-27.63
-31.99
-35.62
-39.13
-43.41
-49.20
-56.80
-65.72
-74.60
-81.38
-83.77
-80.00
-69.44
-52.93
-32.65
-11.40
8.20
24.39
36.45
44.57
49.37
51.47
51.39
49.53
46.36
42.42
38.29
34.45
31.14
28.45
26.36
24.92
24.24
24.50
25.74
27.77
30.12
32.12
33.11
32.59
30.45
26.93
22.61
18.11
13.87
9.95
5.99
1.45
-4.17
-10.97
-18.58
-26.29
-33.28
-39.03
-43.55
-47.41
-51.58
-57.05
-64.47
-73.77
-83.90
-92.94
-98.44
-98.10
-90.47
-75.59
-55.03
-31.51
-8.09
12.64
29.17
41.17
49.13
53.93
56.36
57.01
56.27
54.50
52.12
49.53
47.06
44.86
42.94
41.23
39.82
38.86
38.62
39.33
40.94
43.08
45.10
46.21
45.75
43.47
39.56
34.63
29.43
24.53
20.10
15.80
11.05
5.32
-1.60
-9.41
-17.43
-24.83
-31.00
-35.75
-39.36
-42.50
-46.04
-50.81
-57.37
-65.68
-74.93
-83.46
-88.94
-89.01
-82.02
-67.73
-47.53
-24.18
-0.88
19.62
35.65
46.85
53.77
57.34
58.40
57.53
55.09
51.46
47.10
42.52
38.20
34.36
31.07
28.29
26.06
24.58
24.09
24.75
26.36
28.41
30.13
30.74
29.77
27.11
23.07
18.17
12.91
7.54
2.05
-3.84
-10.43
-17.88
-26.03
-34.47
-42.63
-50.01
-56.40
-62.00
-67.47
-73.74
-81.69
-91.69
-103.20
-114.67
-123.77
-128.08
-125.93
-117.09
-102.91
-85.95
-69.17
-55.11
-45.31
-40.24
-39.57
-42.55
-48.44
-56.58
-66.37
-77.04
-87.66
-97.10
-104.20
-107.80
-106.84
-100.46
-88.14
-69.82
-46.11
-18.20
12.19
43.11
72.71
99.44
122.14
140.04
152.69
159.88
161.70
158.53
151.08
140.28
127.24
113.07
98.71
84.84
71.77
59.40
47.32
34.94
21.63
7.14
-8.12
-22.84
-34.92
-42.01
-42.11
-34.43
-19.71
-0.17
21.10
41.03
57.38
69.11
76.30
79.70
80.23
78.65
75.42
70.90
65.48
59.63
53.84
48.53
43.86
39.82
36.37
33.59
31.75
31.19
32.04
34.10
36.64
38.60
39.02
37.29
33.46
28.13
22.22
16.56
11.62
7.30
3.11
-1.57
-7.20
-13.83
-21.02
-28.15
-34.60
-40.06
-44.67
-49.04
-53.98
-60.36
-68.70
-78.88
-89.86
-99.66
-105.67
-105.31
-96.90
-80.33
-57.33
-30.99
-4.82
18.19
36.34
49.30
57.70
62.58
64.86
65.16
63.86
61.32
57.91
54.11
50.33
46.87
43.89
41.51
39.80
38.83
38.66
39.28
40.56
42.26
44.00
45.24
45.43
44.11
41.09
36.57
31.08
25.34
19.96
15.20
10.90
6.55
1.56
-4.45
-11.52
-19.22
-26.86
-33.73
-39.36
-43.67
-47.05
-50.25
-54.16
-59.61
-66.99
-76.04
-85.57
-93.55
-97.47
-95.05
-85.03
-67.75
-45.12
-20.15
4.02
24.88
41.08
52.36
59.22
62.44
62.79
60.95
57.55
53.23
48.59
44.12
40.16
36.86
34.18
32.03
30.39
29.38
29.14
29.81
31.34
33.35
35.20
36.14
35.56
33.18
29.19
24.13
18.70
13.51
8.87
4.68
0.56
-3.98
-9.22
-15.17
-21.47
-27.59
-33.09
-37.82
-41.94
-45.91
-50.33
-55.78
-62.56
-70.56
-78.96
-86.17
-90.04
-88.38
-79.74
-64.05
-42.87
-19.01
4.30
24.34
39.52
49.54
55.07
57.17
56.78
54.59
51.00
46.36
41.04
35.50
30.19
25.48
21.67
18.99
17.55
17.33
18.13
19.54
21.01
22.01
22.16
21.34
19.59
17.01
13.61
9.36
4.22
-1.73
-8.26
-15.02
-21.64
-27.85
-33.51
-38.68
-43.61
-48.69
-54.47
-61.50
-70.07
-79.89
-89.74
-97.51
-100.64
-96.85
-85.03
-65.78
-41.35
-15.04
9.86
30.82
46.65
57.24
63.33
65.86
65.71
63.57
60.00
55.46
50.36
45.06
39.84
34.94
30.57
26.97
24.37
22.92
22.62
23.26
24.43
25.67
26.44
26.37
25.22
22.98
19.74
15.63
10.79
5.32
-0.61
-6.83
-13.06
-19.06
-24.66
-29.85
-34.82
-39.93
-45.68
-52.51
-60.72
-70.12
-79.81
-88.09
-92.68
-91.35
-82.66
-66.59
-44.84
-20.33
3.64
24.30
40.05
50.62
56.63
59.13
59.09
57.26
54.14
50.14
45.61
40.94
36.40
32.20
28.47
25.33
22.89
21.31
20.70
21.05
22.19
23.77
25.33
26.41
26.63
25.70
23.42
19.68
14.49
8.03
0.63
-7.17
-14.80
-21.75
-27.78
-32.94
-37.57
-42.23
-47.57
-54.15
-62.30
-71.75
-81.47
-89.57
-93.62
-91.43
-81.79
-65.10
-43.38
-19.65
2.90
21.89
36.13
45.58
50.92
52.95
52.33
49.51
44.87
38.94
32.42
26.11
20.75
16.79
14.33
13.19
13.02
13.44
14.17
15.05
15.99
16.90
17.54
17.52
16.38
13.69
9.29
3.39
-3.38
-10.15
-16.16
-20.99
-24.75
-28.10
-31.95
-37.23
-44.52
-53.89
-64.60
-75.06
-83.05
-86.15
-82.44
-71.20
-53.26
-30.88
-7.12
15.07
33.60
47.55
57.02
62.64
65.15
65.11
62.90
58.88
53.54
47.53
41.56
36.24
31.95
28.85
26.91
26.03
26.01
26.59
27.36
27.84
27.50
26.01
23.31
19.62
15.35
10.80
6.06
0.97
-4.75
-11.22
-18.34
-25.72
-32.84
-39.26
-44.77
-49.52
-54.02
-59.03
-65.43
-73.79
-84.03
-95.00
-104.49
-109.61
-107.72
-97.34
-78.82
-54.37
-27.39
-1.38
20.98
38.40
50.89
59.24
64.42
67.11
67.75
66.65
64.18
60.91
57.47
54.28
51.52
49.08
46.79
44.60
42.71
41.49
41.26
42.08
43.58
45.08
45.75
44.88
42.16
37.67
31.87
25.42
18.98
13.03
7.68
2.70
-2.44
-8.26
-15.06
-22.70
-30.60
-38.00
-44.27
-49.20
-53.09
-56.68
-60.86
-66.48
-74.09
-83.66
-94.41
-104.56
-111.57
-112.63
-105.68
-90.20
-67.67
-41.13
-14.25
9.88
29.46
44.21
54.75
62.04
66.75
69.22
69.57
67.97
64.84
60.70
56.14
51.67
47.63
44.31
41.93
40.67
40.62
41.71
43.66
45.99
48.12
49.47
49.71
48.71
46.60
43.57
39.77
35.28
30.12
24.37
18.27
12.17
6.40
1.13
-3.72
-8.46
-13.40
-18.75
-24.44
-30.19
-35.59
-40.31
-44.20
-47.42
-50.40
-53.77
-58.23
-64.41
-72.49
-81.98
-91.38
-98.35
-100.21
-94.76
-81.13
-60.24
-34.62
-7.67
17.38
38.27
54.06
64.86
71.38
74.39
74.50
72.18
67.93
62.34
56.10
49.85
44.07
39.03
34.82
31.47
29.04
27.70
27.57
28.66
30.71
33.13
35.13
35.85
34.78
31.84
27.46
22.40
17.36
12.78
8.58
4.33
-0.49
-6.24
-12.84
-19.80
-26.40
-31.94
-36.07
-38.87
-40.89
-43.05
-46.32
-51.48
-58.64
-67.06
-75.04
-80.23
-80.34
-73.77
-60.35
-41.38
-19.34
2.88
22.84
38.96
50.76
58.45
62.57
63.64
62.09
58.34
53.00
46.85
40.73
35.35
31.06
27.93
25.80
24.45
23.82
23.94
24.91
26.72
29.13
31.58
33.33
33.60
31.87
28.07
22.64
16.38
10.22
4.80
0.28
-3.66
-7.71
-12.52
-18.38
-25.14
-32.25
-38.98
-44.73
-49.23
-52.65
-55.62
-58.98
-63.65
-70.20
-78.59
-87.81
-95.94
-100.44
-98.85
-89.65
-72.85
-50.13
-24.46
0.81
22.84
39.93
51.69
58.69
61.98
62.60
61.30
58.60
54.92
50.68
46.34
42.28
38.71
35.70
33.17
31.14
29.67
28.96
29.17
30.37
32.35
34.70
36.77
37.85
37.33
34.89
30.63
25.03
18.85
12.84
7.41
2.58
-2.07
-7.04
-12.72
-19.12
-25.91
-32.52
-38.43
-43.35
-47.35
-50.81
-54.31
-58.55
-64.07
-71.09
-79.15
-86.99
-92.62
-93.69
-88.25
-75.49
-56.21
-32.67
-8.01
14.72
33.28
46.69
55.10
59.34
60.44
59.30
56.59
52.82
48.41
43.83
39.44
35.49
32.06
29.12
26.62
24.61
23.28
22.89
23.60
25.25
27.36
29.12
29.66
28.36
25.09
20.25
14.62
9.01
3.92
-0.62
-5.03
-9.84
-15.37
-21.53
-27.84
-33.61
-38.36
-41.98
-44.77
-47.40
-50.66
-55.22
-61.30
-68.48
-75.53
-80.56
-81.42
-76.40
-64.83
-47.43
-26.25
-4.10
16.26
32.78
44.45
51.29
53.98
53.42
50.51
45.97
40.35
34.14
27.79
21.77
16.55
12.47
9.73
8.32
8.03
8.54
9.53
10.69
11.86
12.88
13.59
13.77
13.14
11.45
8.56
4.54
-0.41
-5.91
-11.54
-16.87
-21.60
-25.59
-28.99
-32.17
-35.70
-40.17
-46.00
-53.14
-60.96
-68.17
-73.02
-73.70
-68.77
-57.75
-41.38
-21.52
-0.73
18.45
34.02
44.98
51.23
53.36
52.22
48.64
43.32
36.84
29.78
22.73
16.29
10.90
6.75
3.83
1.94
0.89
0.56
0.93
2.06
3.92
6.25
8.46
9.81
9.50
7.07
2.51
-3.63
-10.42
-16.85
-22.22
-26.36
-29.66
-32.95
-37.14
-42.93
-50.53
-59.48
-68.59
-76.09
-79.90
-78.20
-69.96
-55.40
-36.10
-14.59
6.32
24.30
38.01
47.20
52.35
54.20
53.40
50.38
45.55
39.43
32.80
26.44
20.96
16.54
13.00
10.08
7.54
5.52
4.32
4.29
5.48
7.50
9.56
10.70
10.09
7.27
2.34
-4.12
-11.28
-18.28
-24.49
-29.70
-34.11
-38.34
-43.20
-49.45
-57.47
-66.96
-76.74
-84.78
-88.70
-86.45
-77.05
-61.10
-40.58
-18.40
2.60
20.29
33.72
42.93
48.55
51.30
51.69
50.10
46.78
42.12
36.76
31.37
26.61
22.87
20.28
18.65
17.69
17.11
16.77
16.65
16.78
17.03
17.09
16.42
14.40
10.60
4.91
-2.30
-10.29
-18.15
-25.10
-30.73
-35.23
-39.26
-43.81
-49.85
-58.03
-68.34
-79.99
-91.33
-100.09
-103.82
-100.57
-89.58
-71.61
-48.85
-24.35
-1.14
18.60
33.93
45.00
52.61
57.62
60.61
61.87
61.52
59.78
57.04
53.76
50.43
47.35
44.66
42.43
40.69
39.60
39.34
40.02
41.53
43.44
45.06
45.56
44.23
40.73
35.19
28.26
20.78
13.57
7.09
1.32
-4.16
-9.92
-16.39
-23.61
-31.20
-38.57
-45.11
-50.46
-54.54
-57.61
-60.18
-62.93
-66.64
-71.96
-79.10
-87.47
-95.51
-100.85
-100.95
-93.86
-79.07
-57.74
-32.42
-6.29
17.78
37.93
53.46
64.66
72.32
77.24
80.06
81.19
80.90
79.44
77.04
73.91
70.27
66.33
62.34
58.65
55.69
53.84
53.32
54.08
55.79
57.92
59.81
60.82
60.46
58.50
55.01
50.38
45.16
39.93
35.10
30.78
26.86
23.07
19.15
15.02
10.70
6.31
1.99
-2.11
-5.88
-9.25
-12.24
-15.07
-18.08
-21.69
-26.20
-31.61
-37.60
-43.59
-48.98
-53.43
-57.03
-60.34
-64.24
-69.59
-77.00
-86.43
-97.02
-107.03
-114.06
-115.58
-109.63
-95.57
-74.41
-48.68
-21.71
3.35
24.32
40.34
51.70
59.31
64.12
66.84
67.94
67.74
66.60
64.86
62.81
60.58
58.18
55.55
52.79
50.15
48.08
47.06
47.34
48.80
50.91
52.82
53.69
52.92
50.44
46.63
42.15
37.64
33.47
29.61
25.79
21.65
16.98
11.82
6.43
1.23
-3.46
-7.44
-10.81
-13.85
-16.99
-20.60
-24.84
-29.61
-34.60
-39.41
-43.74
-47.54
-51.01
-54.62
-58.93
-64.49
-71.57
-79.95
-88.62
-95.80
-99.24
-96.83
-87.35
-71.04
-49.66
-26.03
-3.14
16.68
32.23
43.40
50.83
55.32
57.59
58.17
57.50
56.01
54.13
52.18
50.26
48.33
46.26
44.04
41.86
40.03
38.89
38.71
39.47
40.93
42.59
43.85
44.16
43.19
40.93
37.67
33.88
30.04
26.40
22.97
19.51
15.73
11.44
6.72
1.81
-2.85
-6.89
-10.12
-12.62
-14.70
-16.87
-19.57
-23.06
-27.28
-31.88
-36.35
-40.19
-43.18
-45.51
-47.82
-51.00
-55.86
-62.77
-71.29
-80.07
-87.02
-89.78
-86.50
-76.42
-60.23
-39.88
-18.07
2.55
20.01
33.26
42.18
47.26
49.24
48.95
47.16
44.53
41.60
38.72
35.99
33.43
30.97
28.67
26.66
25.22
24.55
24.81
25.98
27.85
30.06
32.18
33.74
34.38
33.90
32.30
29.76
26.58
23.04
19.36
15.66
11.94
8.16
4.26
0.15
-4.24
-8.96
-14.03
-19.41
-24.94
-30.42
-35.54
-40.00
-43.65
-46.50
-48.88
-51.38
-54.72
-59.41
-65.45
-72.00
-77.42
-79.70
-77.00
-68.38
-54.13
-35.84
-15.86
3.33
19.79
32.44
41.09
46.14
48.25
48.08
46.26
43.31
39.75
36.00
32.43
29.22
26.48
24.24
22.53
21.41
20.96
21.23
22.13
23.50
25.07
26.50
27.42
27.47
26.42
24.21
20.96
17.05
12.95
9.09
5.71
2.74
-0.12
-3.31
-7.11
-11.61
-16.59
-21.68
-26.49
-30.83
-34.67
-38.17
-41.53
-44.98
-48.81
-53.29
-58.58
-64.52
-70.34
-74.64
-75.65
-71.84
-62.46
-48.01
-30.10
-10.98
7.12
22.54
34.40
42.47
46.97
48.27
46.90
43.51
38.87
33.76
28.80
24.32
20.36
16.79
13.51
10.58
8.23
6.79
6.50
7.40
9.20
11.41
13.45
14.78
15.06
14.21
12.42
10.01
7.33
4.58
1.74
-1.39
-5.09
-9.49
-14.53
-19.89
-25.11
-29.76
-33.58
-36.64
-39.32
-42.25
-46.09
-51.26
-57.56
-64.10
-69.27
-71.14
-68.06
-59.21
-45.00
-26.99
-7.54
10.90
26.34
37.70
44.80
48.13
48.53
46.79
43.59
39.45
34.75
29.87
25.10
20.72
16.86
13.60
10.93
8.86
7.40
6.58
6.44
6.91
7.83
8.93
9.88
10.39
10.20
9.18
7.29
4.52
0.92
-3.37
-8.13
-13.03
-17.74
-22.04
-25.94
-29.77
-34.05
-39.28
-45.74
-53.25
-61.05
-67.78
-71.76
-71.29
-65.29
-53.64
-37.45
-18.81
-0.23
16.05
28.69
37.33
42.33
44.36
44.00
41.66
37.67
32.44
26.61
20.92
16.02
12.27
9.70
8.06
7.02
6.35
5.99
6.00
6.53
7.56
8.91
10.14
10.73
10.19
8.25
4.98
0.73
-3.98
-8.64
-12.92
-16.75
-20.32
-24.02
-28.37
-33.80
-40.57
-48.54
-56.98
-64.56
-69.51
-70.08
-65.09
-54.43
-39.20
-21.46
-3.54
12.57
25.66
35.29
41.57
44.77
45.14
42.97
38.75
33.20
27.21
21.62
17.02
13.60
11.25
9.72
8.73
8.13
7.87
7.99
8.51
9.44
10.65
11.87
12.61
12.32
10.55
7.13
2.25
-3.52
-9.45
-14.87
-19.41
-23.15
-26.56
-30.40
-35.41
-42.05
-50.18
-58.98
-66.95
-72.18
-72.80
-67.55
-56.27
-40.05
-21.00
-1.66
15.68
29.57
39.52
45.74
48.80
49.24
47.44
43.81
38.84
33.20
27.59
22.59
18.55
15.54
13.50
12.30
11.84
12.00
12.66
13.65
14.81
15.89
16.64
16.71
15.77
13.55
9.96
5.17
-0.44
-6.39
-12.25
-17.78
-22.92
-27.82
-32.79
-38.28
-44.71
-52.35
-61.01
-69.80
-77.14
-80.97
-79.37
-71.21
-56.69
-37.39
-15.87
5.11
23.31
37.51
47.50
53.75
56.95
57.67
56.31
53.19
48.71
43.45
38.07
33.14
29.00
25.79
23.49
22.08
21.54
21.83
22.83
24.23
25.64
26.61
26.81
26.06
24.27
21.46
17.60
12.73
6.94
0.50
-6.19
-12.67
-18.64
-24.08
-29.29
-34.80
-41.19
-48.83
-57.58
-66.61
-74.43
-79.10
-78.73
-72.08
-59.07
-40.96
-20.03
1.07
20.02
35.39
46.70
54.20
58.38
59.67
58.38
54.80
49.47
43.20
36.92
31.45
27.28
24.41
22.54
21.31
20.52
20.22
20.61
21.85
23.78
25.92
27.53
27.89
26.49
23.25
18.46
12.71
6.68
0.99
-4.02
-8.28
-12.08
-15.96
-20.60
-26.61
-34.33
-43.63
-53.70
-63.07
-69.77
-71.85
-67.89
-57.57
-41.85
-22.77
-2.90
15.39
30.44
41.52
48.61
52.07
52.40
50.15
45.90
40.40
34.43
28.70
23.73
19.72
16.63
14.33
12.68
11.66
11.31
11.65
12.59
13.85
14.94
15.27
14.27
11.65
7.49
2.29
-3.26
-8.55
-13.29
-17.69
-22.39
-28.14
-35.52
-44.50
-54.29
-63.35
-69.66
-71.21
-66.70
-55.92
-39.96
-20.91
-1.31
16.54
31.05
41.54
48.04
51.06
51.20
49.01
44.98
39.59
33.34
26.78
20.42
14.75
10.09
6.66
4.53
3.63
3.74
4.49
5.40
5.90
5.50
3.87
0.98
-2.92
-7.44
-12.11
-16.67
-21.16
-25.92
-31.52
-38.53
-47.15
-56.89
-66.38
-73.55
-76.16
-72.49
-62.06
-45.86
-26.11
-5.58
13.21
28.59
39.88
47.15
50.91
51.71
50.09
46.56
41.69
36.05
30.18
24.51
19.37
15.01
11.67
9.57
8.79
9.25
10.56
12.09
13.10
12.95
11.25
7.95
3.38
-1.98
-7.62
-13.23
-18.87
-24.95
-32.10
-40.88
-51.37
-62.74
-73.20
-80.32
-81.72
-75.90
-62.84
-44.12
-22.39
-0.57
18.99
34.96
47.03
55.53
60.98
63.77
64.08
62.13
58.26
53.13
47.49
42.12
37.53
33.87
31.09
28.98
27.45
26.56
26.41
27.00
28.06
29.06
29.31
28.17
25.21
20.37
13.89
6.28
-1.84
-9.90
-17.45
-24.26
-30.37
-36.10
-42.01
-48.80
-57.05
-66.86
-77.53
-87.38
-94.09
-95.25
-89.25
-75.87
-56.47
-33.57
-10.05
11.62
29.91
44.26
54.80
61.92
66.11
67.76
67.25
65.06
61.70
57.72
53.58
49.59
45.95
42.80
40.32
38.71
38.20
38.80
40.31
42.11
43.43
43.48
41.78
38.34
33.57
28.10
22.48
16.97
11.45
5.61
-0.87
-8.10
-15.88
-23.74
-31.11
-37.52
-42.75
-46.93
-50.53
-54.31
-59.15
-65.71
-74.12
-83.55
-92.27
-97.82
-97.77
-90.54
-75.97
-55.57
-32.03
-8.43
12.68
29.85
42.74
51.89
58.11
62.09
64.20
64.59
63.40
60.92
57.63
54.04
50.52
47.26
44.30
41.69
39.64
38.51
38.62
39.99
42.14
44.23
45.18
44.21
40.97
35.75
29.25
22.35
15.72
9.73
4.31
-0.95
-6.49
-12.62
-19.34
-26.28
-32.90
-38.68
-43.36
-47.12
-50.53
-54.37
-59.41
-66.07
-74.17
-82.76
-90.19
-94.31
-93.08
-85.21
-70.69
-50.89
-28.28
-5.63
14.69
31.29
43.82
52.66
58.49
61.90
63.22
62.73
60.70
57.57
53.81
49.93
46.29
43.10
40.52
38.64
37.52
37.19
37.60
38.57
39.83
41.03
41.82
41.80
40.59
37.90
33.68
28.15
21.83
15.37
9.35
4.04
-0.64
-5.04
-9.62
-14.72
-20.42
-26.50
-32.54
-38.07
-42.72
-46.36
-49.16
-51.62
-54.49
-58.61
-64.67
-72.87
-82.60
-92.38
-99.96
-102.85
-99.05
-87.77
-69.73
-47.11
-22.89
0.04
19.55
34.66
45.55
53.04
58.11
61.51
63.60
64.42
63.94
62.26
59.64
56.52
53.34
50.42
47.95
46.01
44.63
43.90
43.90
44.63
45.88
47.24
48.16
48.12
46.78
44.10
40.42
36.20
31.96
28.02
24.43
21.00
17.45
13.53
9.17
4.49
-0.26
-4.77
-8.83
-12.33
-15.38
-18.28
-21.44
-25.22
-29.80
-35.03
-40.52
-45.79
-50.46
-54.41
-57.80
-60.99
-64.52
-68.91
-74.67
-81.93
-90.22
-98.21
-103.80
-104.59
-98.64
-85.28
-65.50
-41.79
-17.29
5.09
23.41
37.00
46.20
51.92
55.15
56.63
56.85
56.13
54.71
52.82
50.65
48.37
46.03
43.71
41.50
39.61
38.33
37.91
38.47
39.91
41.83
43.59
44.54
44.15
42.20
38.88
34.69
30.25
26.09
22.39
18.95
15.35
11.14
6.16
0.63
-4.92
-9.90
-13.90
-16.90
-19.24
-21.51
-24.27
-27.85
-32.25
-37.13
-42.03
-46.52
-50.37
-53.61
-56.55
-59.68
-63.63
-68.92
-75.77
-83.72
-91.48
-97.04
-98.07
-92.69
-80.15
-61.22
-38.11
-13.80
8.78
27.53
41.53
50.91
56.49
59.24
60.00
59.31
57.53
54.95
51.88
48.63
45.46
42.50
39.76
37.22
34.98
33.30
32.53
32.94
34.51
36.78
38.97
40.17
39.73
37.53
33.95
29.72
25.51
21.70
18.23
14.78
11.00
6.76
2.21
-2.30
-6.37
-9.83
-12.79
-15.59
-18.67
-22.38
-26.76
-31.54
-36.25
-40.35
-43.50
-45.75
-47.53
-49.60
-52.78
-57.65
-64.34
-72.23
-79.93
-85.44
-86.63
-81.76
-70.16
-52.50
-30.78
-7.75
13.80
31.73
44.93
53.34
57.61
58.66
57.44
54.67
50.93
46.65
42.26
38.04
34.16
30.67
27.54
24.76
22.45
20.87
20.29
20.85
22.39
24.50
26.56
27.97
28.30
27.35
25.14
21.84
17.73
13.27
8.90
5.02
1.79
-0.99
-3.83
-7.33
-11.87
-17.36
-23.32
-28.98
-33.74
-37.35
-40.04
-42.44
-45.26
-49.12
-54.26
-60.36
-66.54
-71.42
-73.39
-70.95
-63.23
-50.23
-32.98
-13.38
6.25
23.68
37.31
46.44
51.19
52.33
50.84
47.56
43.12
37.82
31.92
25.68
19.53
13.94
9.36
6.02
3.95
3.01
2.98
3.64
4.80
6.26
7.75
8.95
9.49
9.06
7.52
4.93
1.50
-2.44
-6.57
-10.65
-14.59
-18.40
-22.16
-25.96
-29.92
-34.16
-38.87
-44.21
-50.26
-56.73
-62.82
-67.21
-68.24
-64.45
-55.07
-40.50
-22.25
-2.62
16.00
31.66
43.28
50.61
54.00
54.09
51.57
47.06
41.26
34.84
28.43
22.53
17.40
13.04
9.31
6.09
3.33
1.15
-0.26
-0.77
-0.43
0.49
1.54
2.16
1.83
0.20
-2.78
-6.88
-11.65
-16.52
-21.04
-24.98
-28.45
-31.83
-35.66
-40.47
-46.53
-53.75
-61.45
-68.43
-72.99
-73.36
-68.24
-57.25
-41.27
-22.24
-2.70
15.01
29.32
39.60
45.98
49.00
49.23
47.16
43.20
37.86
31.76
25.55
19.75
14.68
10.38
6.81
3.95
1.87
0.71
0.59
1.48
3.03
4.65
5.57
5.06
2.68
-1.56
-7.18
-13.39
-19.33
-24.42
-28.54
-32.04
-35.68
-40.32
-46.60
-54.71
-64.13
-73.59
-81.15
-84.67
-82.33
-73.30
-58.06
-38.41
-16.94
3.68
21.41
35.13
44.62
50.18
52.32
51.56
48.51
43.88
38.57
33.33
28.67
24.61
20.82
16.86
12.59
8.30
4.66
2.38
1.85
2.88
4.69
6.11
5.97
3.49
-1.47
-8.37
-16.24
-23.98
-30.78
-36.42
-41.27
-46.22
-52.31
-60.38
-70.68
-82.51
-94.15
-103.04
-106.45
-102.27
-89.77
-70.03
-45.66
-20.01
3.85
23.85
39.22
50.21
57.55
61.90
63.69
63.17
60.63
56.58
51.64
46.40
41.26
36.37
31.73
27.38
23.51
20.48
18.64
18.13
18.72
19.75
20.24
19.20
15.88
10.04
2.09
-7.06
-16.28
-24.61
-31.63
-37.61
-43.43
-50.28
-59.28
-70.94
-84.78
-99.17
-111.51
-118.78
-118.38
-108.92
-90.78
-66.04
-37.86
-9.60
16.06
37.56
54.45
67.02
75.89
81.63
84.74
85.62
84.68
82.34
79.05
75.20
71.12
67.06
63.19
59.71
56.83
54.85
53.99
54.36
55.81
57.83
59.67
60.51
59.67
56.81
52.05
45.88
39.01
32.10
25.59
19.55
13.70
7.58
0.73
-7.11
-15.87
-25.16
-34.43
-43.12
-50.85
-57.51
-63.39
-69.14
-75.71
-84.12
-94.94
-107.86
-121.33
-132.53
-138.09
-135.10
-122.15
-99.95
-71.17
-39.55
-8.81
18.26
40.31
57.19
69.53
78.18
83.88
87.13
88.27
87.58
85.40
82.16
78.31
74.28
70.39
66.78
63.55
60.83
58.86
57.93
58.21
59.57
61.45
63.02
63.38
61.88
58.28
52.82
46.05
38.67
31.30
24.32
17.85
11.67
5.35
-1.54
-9.25
-17.70
-26.44
-34.84
-42.29
-48.54
-53.72
-58.39
-63.32
-69.33
-77.08
-86.79
-98.04
-109.53
-119.08
-123.98
-121.68
-110.67
-91.12
-65.02
-35.59
-6.44
19.46
40.38
55.90
66.62
73.59
77.81
80.03
80.71
80.11
78.42
75.83
72.61
69.02
65.39
61.98
59.07
56.96
55.89
56.03
57.28
59.25
61.24
62.52
62.47
60.79
57.53
52.96
47.41
41.18
34.48
27.52
20.52
13.73
7.31
1.29
-4.49
-10.25
-16.20
-22.44
-28.89
-35.36
-41.60
-47.38
-52.56
-57.16
-61.41
-65.82
-71.10
-77.98
-86.83
-97.23
-107.71
-115.73
-118.41
-113.32
-99.48
-77.79
-50.85
-22.17
4.86
27.79
45.49
57.94
65.87
70.21
71.88
71.62
70.03
67.56
64.53
61.13
57.44
53.55
49.57
45.75
42.39
39.80
38.15
37.41
37.29
37.33
37.07
36.12
34.29
31.57
28.03
23.71
18.58
12.63
5.94
-1.30
-8.75
-16.04
-22.92
-29.29
-35.32
-41.36
-47.93
-55.58
-64.64
-74.87
-85.16
-93.53
-97.40
-94.42
-83.29
-64.39
-39.82
-12.80
13.24
35.63
52.95
64.99
72.33
75.84
76.31
74.41
70.73
65.85
60.38
54.85
49.65
44.99
40.94
37.56
34.94
33.23
32.57
33.00
34.43
36.57
39.02
41.23
42.69
42.96
41.85
39.42
36.04
32.20
28.34
24.69
21.16
17.48
13.31
8.49
3.06
-2.61
-8.03
-12.75
-16.56
-19.57
-22.20
-25.00
-28.44
-32.74
-37.77
-43.12
-48.29
-52.84
-56.63
-59.82
-62.89
-66.45
-71.15
-77.39
-85.06
-93.33
-100.50
-104.32
-102.48
-93.38
-76.80
-54.13
-28.09
-1.96
21.29
39.72
52.69
60.61
64.40
65.06
63.33
59.74
54.83
49.20
43.55
38.50
34.36
31.08
28.33
25.84
23.54
21.73
20.88
21.35
23.09
25.56
27.90
29.25
29.07
27.30
24.36
20.87
17.33
13.93
10.51
6.70
2.14
-3.31
-9.47
-15.92
-22.13
-27.70
-32.44
-36.44
-40.06
-43.85
-48.40
-54.16
-61.20
-69.01
-76.33
-81.30
-81.85
-76.36
-64.27
-46.39
-24.81
-2.27
18.61
35.91
48.79
57.20
61.67
62.81
61.18
57.30
51.76
45.25
38.49
32.11
26.47
21.65
17.53
14.00
11.05
8.80
7.45
7.07
7.59
8.69
9.89
10.69
10.62
9.36
6.79
3.05
-1.57
-6.60
-11.59
-16.17
-20.20
-23.73
-27.04
-30.52
-34.62
-39.67
-45.76
-52.50
-58.95
-63.66
-65.00
-61.62
-52.92
-39.38
-22.46
-4.20
13.24
28.09
39.28
46.43
49.65
49.40
46.31
41.10
34.65
27.83
21.40
15.84
11.23
7.36
3.94
0.76
-2.14
-4.53
-6.12
-6.76
-6.60
-6.03
-5.57
-5.68
-6.63
-8.45
-10.96
-13.87
-16.91
-19.98
-23.22
-26.98
-31.73
-37.82
-45.19
-53.16
-60.37
-64.98
-65.19
-59.76
-48.58
-32.70
-14.24
4.30
20.67
33.38
41.88
46.38
47.55
46.19
42.97
38.40
32.89
26.81
20.50
14.29
8.43
3.13
-1.48
-5.29
-8.26
-10.43
-11.94
-13.01
-13.95
-15.05
-16.52
-18.51
-21.03
-23.99
-27.26
-30.75
-34.57
-39.00
-44.44
-51.12
-58.81
-66.48
-72.39
-74.43
-70.89
-61.02
-45.51
-26.26
-5.89
13.07
28.74
40.19
47.37
50.79
51.15
49.12
45.27
40.07
33.92
27.24
20.47
14.10
8.58
4.32
1.53
0.21
0.09
0.67
1.33
1.48
0.72
-1.10
-3.87
-7.37
-11.35
-15.66
-20.32
-25.46
-31.42
-38.54
-47.07
-56.77
-66.71
-75.18
-79.92
-78.82
-70.71
-55.90
-36.21
-14.48
6.39
24.23
37.94
47.42
53.07
55.46
55.03
52.25
47.75
42.36
36.91
32.03
27.98
24.63
21.66
18.87
16.29
14.19
12.91
12.62
13.15
13.94
14.17
12.96
9.71
4.28
-2.93
-11.07
-19.19
-26.50
-32.77
-38.31
-43.98
-50.82
-59.66
-70.68
-83.05
-94.83
-103.26
-105.56
-99.80
-85.66
-64.73
-39.95
-14.77
7.95
26.55
40.67
50.87
57.96
62.60
65.16
65.79
64.71
62.29
59.07
55.53
52.09
48.90
46.02
43.48
41.46
40.23
40.08
41.11
42.95
44.84
45.77
44.88
41.81
36.85
30.83
24.70
19.06
13.92
8.76
2.81
-4.44
-12.98
-22.29
-31.54
-39.97
-47.17
-53.25
-58.79
-64.66
-71.82
-81.01
-92.44
-105.39
-118.13
-127.94
-131.88
-127.56
-114.12
-92.59
-65.69
-36.97
-9.74
13.72
32.54
46.91
57.60
65.41
70.84
74.22
75.77
75.73
74.41
72.11
69.06
65.46
61.52
57.56
54.02
51.36
49.94
49.89
51.03
52.85
54.66
55.71
55.35
53.19
49.18
43.65
37.21
30.55
24.17
18.23
12.43
6.20
-1.04
-9.57
-19.15
-29.12
-38.60
-46.84
-53.54
-58.91
-63.67
-68.78
-75.24
-83.74
-94.42
-106.64
-118.74
-128.30
-132.50
-128.95
-116.52
-95.82
-69.13
-39.73
-10.93
14.81
36.20
53.09
65.97
75.45
82.03
86.07
87.92
88.02
86.87
84.88
82.29
79.18
75.58
71.66
67.78
64.51
62.39
61.77
62.51
64.09
65.75
66.70
66.39
64.66
61.67
57.75
53.23
48.36
43.22
37.82
32.09
26.07
19.86
13.66
7.66
1.92
-3.69
-9.47
-15.77
-22.81
-30.47
-38.34
-45.80
-52.32
-57.66
-62.05
-66.19
-71.01
-77.49
-86.23
-97.13
-109.09
-120.00
-127.00
-127.25
-118.84
-101.50
-76.85
-47.99
-18.54
8.39
30.84
48.17
60.77
69.43
74.98
78.04
79.06
78.40
76.45
73.58
70.13
66.37
62.45
58.58
55.01
52.13
50.35
50.00
51.13
53.41
56.16
58.58
59.93
59.84
58.34
55.74
52.51
48.92
44.97
40.47
35.19
29.09
22.42
15.65
9.19
3.23
-2.44
-8.25
-14.59
-21.60
-29.01
-36.28
-42.84
-48.42
-53.06
-57.17
-61.30
-66.09
-72.10
-79.68
-88.67
-98.19
-106.49
-111.13
-109.63
-100.27
-82.82
-58.78
-30.99
-2.86
22.64
43.59
59.30
70.03
76.49
79.48
79.63
77.47
73.52
68.41
62.82
57.40
52.60
48.60
45.35
42.65
40.38
38.53
37.28
36.86
37.40
38.80
40.61
42.16
42.75
41.86
39.34
35.47
30.78
25.84
21.04
16.48
12.00
7.36
2.33
-3.18
-9.09
-15.23
-21.35
-27.18
-32.52
-37.24
-41.41
-45.28
-49.36
-54.20
-60.31
-67.79
-76.05
-83.70
-88.71
-88.85
-82.40
-68.84
-49.16
-25.76
-1.67
20.16
37.68
50.04
57.40
60.59
60.57
58.15
53.92
48.32
41.83
35.03
28.51
22.79
18.12
14.55
11.95
10.13
8.98
8.47
8.62
9.36
10.50
11.69
12.50
12.48
11.31
8.89
5.28
0.75
-4.29
-9.44
-14.34
-18.79
-22.79
-26.55
-30.40
-34.78
-40.07
-46.44
-53.72
-61.23
-67.74
-71.59
-71.07
-64.89
-52.70
-35.34
-14.76
6.47
25.78
41.24
51.80
57.30
58.26
55.50
49.99
42.70
34.54
26.35
18.76
12.23
6.86
2.53
-1.06
-4.17
-6.86
-8.96
-10.17
-10.22
-9.16
-7.48
-5.94
-5.38
-6.34
-8.86
-12.48
-16.48
-20.18
-23.23
-25.72
-28.08
-30.97
-35.05
-40.78
-48.14
-56.49
-64.49
-70.26
-71.81
-67.63
-57.19
-41.19
-21.46
-0.50
19.11
35.41
47.20
54.18
56.69
55.42
51.22
44.97
37.57
29.79
22.34
15.60
9.75
4.70
0.30
-3.50
-6.61
-8.77
-9.80
-9.73
-8.91
-7.93
-7.48
-8.09
-9.97
-13.01
-16.87
-21.14
-25.46
-29.75
-34.21
-39.34
-45.77
-53.85
-63.33
-73.02
-80.82
-84.28
-81.28
-70.81
-53.47
-31.35
-7.42
15.23
34.21
48.19
56.94
60.99
61.26
58.73
54.27
48.62
42.35
35.90
29.55
23.42
17.57
12.12
7.31
3.46
0.87
-0.33
-0.36
0.28
0.95
0.97
-0.15
-2.60
-6.29
-10.87
-15.88
-20.91
-25.81
-30.83
-36.62
-43.96
-53.34
-64.36
-75.48
-84.19
-87.58
-83.37
-70.83
-51.10
-26.97
-1.95
20.84
39.34
52.89
61.81
66.87
68.82
68.23
65.55
61.31
56.16
50.77
45.59
40.80
36.36
32.20
28.37
25.14
22.83
21.66
21.52
21.98
22.36
22.06
20.71
18.24
14.89
10.93
6.56
1.78
-3.57
-9.64
-16.45
-23.74
-31.09
-38.02
-44.23
-49.74
-54.89
-60.30
-66.71
-74.76
-84.62
-95.60
-105.99
-113.19
-114.33
-107.18
-91.07
-67.27
-38.80
-9.52
17.03
38.51
54.06
64.09
69.69
72.08
72.16
70.55
67.58
63.48
58.55
53.11
47.56
42.22
37.36
33.20
29.96
27.82
26.94
27.32
28.64
30.29
31.46
31.42
29.77
26.60
22.28
17.26
11.74
5.65
-1.20
-8.87
-17.09
-25.26
-32.72
-39.07
-44.38
-49.24
-54.59
-61.39
-70.25
-81.05
-92.59
-102.67
-108.39
-107.02
-96.85
-77.93
-52.27
-23.23
5.42
30.59
50.43
64.49
73.29
77.77
78.83
77.23
73.58
68.53
62.72
56.81
51.28
46.37
42.07
38.25
34.80
31.87
29.81
29.05
29.87
32.10
35.09
37.86
39.38
38.95
36.43
32.23
27.11
21.85
16.92
12.30
7.53
2.03
-4.66
-12.58
-21.30
-30.02
-37.95
-44.50
-49.62
-53.77
-57.85
-62.86
-69.62
-78.36
-88.39
-97.97
-104.51
-105.18
-97.79
-81.64
-58.01
-29.86
-1.00
25.03
45.90
60.77
70.01
74.60
75.49
73.39
68.86
62.52
55.24
47.96
41.46
36.08
31.76
28.13
24.87
21.92
19.53
18.10
17.95
19.07
20.99
22.87
23.72
22.76
19.62
14.48
7.98
0.97
-5.73
-11.63
-16.73
-21.47
-26.61
-32.94
-40.99
-50.79
-61.60
-71.88
-79.51
-82.21
-78.19
-66.73
-48.59
-25.84
-1.39
21.80
41.40
56.09
65.56
70.12
70.39
67.07
60.95
52.95
44.16
35.65
28.27
22.34
17.74
14.04
10.89
8.17
6.12
5.05
5.15
6.21
7.57
8.32
7.61
4.96
0.48
-5.25
-11.34
-16.98
-21.72
-25.67
-29.43
-33.88
-39.88
-47.87
-57.59
-67.95
-76.98
-82.29
-81.60
-73.48
-57.95
-36.63
-12.31
11.77
32.81
49.03
59.80
65.37
66.49
64.02
58.82
51.76
43.76
35.66
28.07
21.32
15.37
10.13
5.55
1.81
-0.75
-1.91
-1.74
-0.76
0.20
0.22
-1.31
-4.58
-9.21
-14.49
-19.68
-24.29
-28.28
-32.12
-36.56
-42.45
-50.30
-59.97
-70.46
-79.88
-85.69
-85.43
-77.47
-61.66
-39.59
-14.20
11.06
33.14
50.10
61.31
67.16
68.57
66.52
61.85
55.23
47.35
38.91
30.60
23.03
16.58
11.41
7.57
5.06
3.86
3.88
4.83
6.12
6.98
6.61
4.46
0.38
-5.25
-11.77
-18.50
-24.97
-31.18
-37.53
-44.75
-53.52
-64.04
-75.64
-86.58
-94.26
-95.90
-89.38
-74.14
-51.50
-24.42
3.42
28.64
49.03
63.78
73.20
78.12
79.41
77.71
73.53
67.50
60.36
53.00
46.11
40.11
35.08
30.98
27.88
25.94
25.38
26.22
28.08
30.18
31.57
31.50
29.69
26.40
22.23
17.79
13.38
8.88
3.88
-2.07
-9.19
-17.35
-26.08
-34.76
-42.88
-50.22
-56.98
-63.76
-71.44
-80.91
-92.63
-106.16
-119.80
-130.69
-135.45
-131.13
-116.38
-92.04
-61.05
-27.62
4.01
30.67
50.82
64.45
72.57
76.53
77.59
76.68
74.33
70.91
66.63
61.67
56.29
50.82
45.57
40.86
36.92
33.87
31.74
30.45
29.83
29.62
29.48
29.05
27.95
25.89
22.52
17.60
10.99
2.80
-6.48
-16.13
-25.33
-33.50
-40.54
-46.87
-53.30
-60.79
-70.13
-81.62
-94.89
-108.60
-120.41
-127.32
-126.37
-115.61
-94.95
-66.43
-33.72
-1.02
28.07
51.44
68.56
80.05
87.05
90.59
91.48
90.34
87.75
84.30
80.48
76.58
72.56
68.19
63.28
57.90
52.54
48.00
45.09
44.25
45.32
47.45
49.40
49.90
48.11
43.92
37.87
30.95
24.14
18.00
12.52
7.13
1.07
-6.28
-15.03
-24.74
-34.59
-43.69
-51.47
-57.87
-63.41
-69.02
-75.83
-84.79
-96.27
-109.64
-123.06
-133.61
-137.92
-133.12
-117.93
-93.21
-61.86
-28.00
4.26
31.81
53.09
68.00
77.39
82.44
84.25
83.67
81.41
78.06
74.12
69.92
65.60
61.11
56.38
51.51
46.86
43.07
40.77
40.32
41.59
43.85
46.02
46.99
45.98
42.79
37.81
31.78
25.55
19.72
14.39
9.17
3.41
-3.48
-11.67
-20.76
-29.96
-38.38
-45.44
-51.10
-55.89
-60.71
-66.58
-74.33
-84.25
-95.77
-107.22
-115.96
-118.88
-113.34
-98.16
-74.19
-44.24
-12.20
18.00
43.48
62.80
75.89
83.47
86.56
86.10
82.92
77.82
71.59
64.99
58.56
52.55
46.91
41.47
36.31
31.78
28.48
27.01
27.51
29.53
32.08
33.99
34.38
32.92
29.90
25.91
21.50
16.90
12.01
6.54
0.26
-6.85
-14.53
-22.37
-29.94
-36.92
-43.22
-49.03
-54.82
-61.24
-68.94
-78.22
-88.65
-98.75
-106.10
-107.87
-101.72
-86.65
-63.56
-35.09
-4.90
23.39
47.04
64.67
76.10
81.95
83.21
80.92
76.05
69.60
62.46
55.41
48.93
43.21
38.14
33.57
29.47
26.05
23.70
22.77
23.33
25.01
27.04
28.55
28.86
27.75
25.39
22.19
18.48
14.37
9.71
4.26
-2.08
-9.17
-16.67
-24.13
-31.16
-37.52
-43.16
-48.26
-53.26
-58.84
-65.70
-74.23
-83.99
-93.49
-100.19
-101.20
-94.18
-78.33
-54.86
-26.71
2.32
28.65
49.88
65.02
74.28
78.53
78.74
75.72
70.19
62.89
54.64
46.31
38.64
32.07
26.69
22.39
18.97
16.34
14.59
13.81
14.07
15.18
16.72
18.13
18.85
18.53
17.06
14.53
11.10
6.94
2.09
-3.35
-9.22
-15.21
-20.98
-26.23
-30.96
-35.51
-40.51
-46.65
-54.37
-63.52
-73.14
-81.47
-86.25
-85.28
-77.12
-61.63
-40.23
-15.56
9.19
31.13
48.36
60.10
66.60
68.60
66.97
62.48
55.85
47.83
39.33
31.29
24.43
19.06
15.04
11.89
9.12
6.54
4.34
2.97
2.81
3.87
5.67
7.35
7.96
6.86
3.87
-0.67
-6.09
-11.65
-16.73
-21.01
-24.51
-27.55
-30.72
-34.76
-40.30
-47.58
-56.14
-64.70
-71.31
-73.81
-70.50
-60.64
-44.86
-24.93
-3.33
17.44
35.31
49.02
58.01
62.32
62.34
58.76
52.51
44.63
36.19
28.09
20.87
14.64
9.24
4.43
0.18
-3.33
-5.79
-6.95
-6.85
-5.91
-4.78
-4.17
-4.61
-6.24
-8.86
-12.04
-15.35
-18.50
-21.49
-24.63
-28.39
-33.30
-39.77
-47.84
-56.95
-65.81
-72.48
-74.82
-71.06
-60.50
-43.84
-23.14
-1.21
19.13
35.75
47.54
54.35
56.67
55.26
50.96
44.66
37.21
29.46
22.14
15.65
10.16
5.57
1.71
-1.50
-3.98
-5.59
-6.24
-6.10
-5.58
-5.24
-5.64
-7.08
-9.59
-12.90
-16.62
-20.40
-24.13
-27.99
-32.47
-38.23
-45.75
-55.00
-65.05
-74.05
-79.52
-79.08
-71.29
-56.21
-35.57
-12.29
10.44
29.98
44.78
54.47
59.48
60.63
58.71
54.39
48.31
41.10
33.43
25.97
19.21
13.46
8.80
5.23
2.70
1.17
0.61
0.82
1.41
1.81
1.35
-0.48
-3.80
-8.36
-13.57
-18.83
-23.79
-28.57
-33.76
-40.19
-48.54
-58.92
-70.48
-81.39
-89.11
-91.10
-85.54
-72.10
-52.11
-28.26
-3.79
18.40
36.43
49.56
58.00
62.40
63.44
61.78
58.02
52.80
46.81
40.62
34.58
28.77
23.10
17.55
12.32
7.91
4.89
3.64
4.05
5.45
6.72
6.73
4.68
0.40
-5.63
-12.54
-19.45
-25.83
-31.69
-37.56
-44.34
-52.95
-63.98
-77.21
-91.33
-103.95
-112.07
-112.86
-104.66
-87.61
-63.74
-36.36
-9.13
14.99
34.26
48.32
57.68
63.29
66.02
66.47
65.06
62.13
58.03
53.12
47.71
42.00
36.12
30.25
24.73
20.10
16.87
15.25
14.91
15.03
14.42
12.06
7.43
0.66
-7.58
-16.47
-25.50
-34.65
-44.37
-55.25
-67.60
-81.29
-95.73
-110.17
-124.02
-137.09
-149.73
-162.66
-176.73
-192.64
-210.51
-229.48
-247.48
-261.28
-267.04
-261.23
-241.82
-208.93
-164.91
-113.62
-59.38
-5.94
44.09
89.18
128.63
162.01
189.03
209.47
223.34
230.97
233.07
230.62
224.79
216.74
207.50
197.88
188.47
179.70
171.89
165.27
159.88
155.45
151.38
146.90
141.24
133.90
124.73
114.00
102.26
90.16
78.32
67.09
56.58
46.56
36.61
26.25
15.16
3.34
-8.85
-20.77
-31.76
-41.39
-49.63
-56.92
-64.07
-72.04
-81.65
-93.25
-106.42
-119.72
-130.77
-136.69
-134.88
-123.88
-104.00
-77.28
-46.99
-16.67
10.80
33.73
51.60
64.77
73.97
79.96
83.44
85.00
85.16
84.35
82.84
80.75
78.06
74.69
70.74
66.50
62.48
59.28
57.34
56.80
57.33
58.30
58.99
58.81
57.51
55.09
51.67
47.39
42.27
36.29
29.54
22.29
14.98
8.09
1.96
-3.45
-8.45
-13.59
-19.37
-26.02
-33.40
-41.05
-48.39
-54.94
-60.55
-65.47
-70.30
-75.86
-82.95
-92.02
-102.82
-114.11
-123.67
-128.70
-126.58
-115.76
-96.41
-70.51
-41.28
-12.28
13.60
34.69
50.64
61.96
69.60
74.45
77.17
78.21
77.90
76.55
74.47
71.92
69.07
66.02
62.83
59.69
56.86
54.70
53.48
53.25
53.72
54.36
54.50
53.63
51.55
48.33
44.28
39.72
34.85
29.77
24.52
19.12
13.66
8.23
2.82
-2.66
-8.38
-14.48
-20.94
-27.60
-34.17
-40.37
-46.06
-51.28
-56.30
-61.49
-67.36
-74.39
-82.82
-92.45
-102.29
-110.50
-114.66
-112.42
-102.32
-84.46
-60.58
-33.65
-6.94
16.88
36.30
50.91
61.03
67.21
70.01
69.89
67.44
63.40
58.61
53.78
49.29
45.19
41.33
37.60
34.16
31.33
29.49
28.82
29.14
29.97
30.66
30.62
29.54
27.42
24.51
21.15
17.52
13.62
9.25
4.16
-1.79
-8.46
-15.46
-22.25
-28.35
-33.53
-37.90
-41.92
-46.30
-51.83
-59.08
-68.09
-78.05
-87.20
-93.17
-93.50
-86.56
-72.11
-51.53
-27.45
-2.99
19.13
37.17
50.46
59.22
64.08
65.76
64.93
62.15
57.99
53.02
47.78
42.68
38.03
33.97
30.57
27.82
25.69
24.20
23.35
23.19
23.69
24.68
25.82
26.59
26.42
24.87
21.87
17.73
13.07
8.54
4.55
1.13
-2.08
-5.58
-9.82
-14.89
-20.56
-26.39
-31.87
-36.68
-40.80
-44.50
-48.21
-52.48
-57.84
-64.65
-72.88
-81.89
-90.29
-95.99
-96.71
-90.62
-77.08
-57.06
-32.94
-7.80
15.39
34.57
48.82
58.20
63.24
64.67
63.12
59.20
53.62
47.13
40.48
34.27
28.78
24.08
20.03
16.50
13.41
10.80
8.83
7.68
7.47
8.17
9.51
11.02
12.10
12.13
10.68
7.60
3.13
-2.23
-7.83
-13.13
-17.88
-22.13
-26.25
-30.77
-36.20
-42.88
-50.82
-59.46
-67.69
-73.85
-76.10
-72.87
-63.45
-48.29
-29.05
-8.15
11.82
28.74
41.39
49.42
53.17
53.32
50.59
45.71
39.24
31.83
24.08
16.57
9.78
4.02
-0.53
-3.87
-5.99
-7.02
-7.12
-6.61
-5.92
-5.53
-5.81
-6.96
-8.90
-11.40
-14.22
-17.20
-20.40
-24.13
-28.81
-34.85
-42.32
-50.71
-58.80
-64.80
-66.77
-63.24
-53.74
-39.06
-21.11
-2.29
15.11
29.49
40.00
46.56
49.41
48.95
45.64
40.03
32.78
24.72
16.66
9.28
3.05
-1.80
-5.22
-7.27
-8.16
-8.17
-7.71
-7.23
-7.13
-7.68
-9.05
-11.25
-14.24
-17.98
-22.42
-27.60
-33.64
-40.79
-49.24
-58.90
-69.06
-78.22
-84.27
-85.02
-78.95
-65.91
-47.21
-25.39
-3.38
16.28
31.97
43.15
50.05
53.27
53.43
51.05
46.50
40.27
32.92
25.20
17.87
11.55
6.65
3.28
1.27
0.29
-0.09
-0.31
-0.70
-1.53
-2.93
-4.95
-7.59
-10.82
-14.69
-19.29
-24.83
-31.65
-40.06
-50.11
-61.23
-72.03
-80.41
-84.02
-80.99
-70.65
-53.83
-32.61
-9.72
12.27
31.54
47.17
58.91
66.85
71.18
72.14
70.09
65.72
59.89
53.52
47.31
41.59
36.32
31.30
26.44
21.99
18.45
16.34
15.84
16.58
17.62
17.79
16.10
12.07
5.93
-1.58
-9.51
-17.10
-23.98
-30.25
-36.39
-43.10
-51.15
-61.08
-72.95
-85.97
-98.40
-107.73
-111.30
-107.16
-94.79
-75.36
-51.37
-25.80
-1.30
20.49
38.89
53.91
65.80
74.67
80.50
83.30
83.26
80.91
76.99
72.29
67.56
63.29
59.75
56.97
54.93
53.59
52.98
53.12
53.91
55.00
55.79
55.52
53.58
49.65
43.91
36.99
29.75
22.92
16.93
11.71
6.77
1.50
-4.64
-11.84
-19.89
-28.27
-36.33
-43.55
-49.74
-55.10
-60.18
-65.84
-72.91
-82.07
-93.29
-105.70
-117.38
-125.74
-128.10
-122.59
-108.74
-87.74
-61.99
-34.37
-7.37
17.39
39.12
57.62
72.85
84.63
92.82
97.42
98.80
97.65
94.79
90.92
86.54
81.94
77.40
73.28
70.06
68.18
67.82
68.81
70.61
72.47
73.66
73.62
72.11
69.21
65.24
60.69
56.01
51.52
47.30
43.17
38.86
34.19
29.23
24.28
19.74
15.98
13.01
10.61
8.32
5.69
2.41
-1.62
-6.28
-11.27
-16.30
-21.12
-25.64
-29.93
-34.23
-38.84
-44.00
-49.69
-55.66
-61.47
-66.70
-71.16
-75.02
-78.88
-83.58
-89.96
-98.42
-108.53
-118.82
-126.93
-130.11
-126.09
-113.79
-93.79
-68.18
-39.97
-12.20
12.82
33.79
50.42
63.04
72.15
78.21
81.54
82.44
81.26
78.51
74.78
70.60
66.42
62.51
59.08
56.37
54.65
54.18
54.96
56.69
58.72
60.24
60.55
59.27
56.40
52.24
47.22
41.76
36.17
30.71
25.51
20.56
15.72
10.78
5.57
0.11
-5.39
-10.54
-15.06
-18.87
-22.19
-25.40
-28.90
-32.93
-37.43
-42.12
-46.63
-50.64
-54.08
-57.20
-60.52
-64.78
-70.60
-78.20
-87.04
-95.64
-101.86
-103.34
-98.29
-86.06
-67.53
-44.78
-20.58
2.44
22.35
38.11
49.53
56.93
60.87
62.05
61.16
58.93
55.96
52.68
49.24
45.68
41.98
38.33
35.08
32.70
31.57
31.78
33.09
34.98
36.86
38.15
38.45
37.56
35.44
32.26
28.27
23.82
19.18
14.55
9.92
5.25
0.53
-4.13
-8.54
-12.54
-16.16
-19.62
-23.27
-27.36
-31.91
-36.66
-41.23
-45.24
-48.56
-51.32
-53.91
-56.91
-60.90
-66.34
-73.26
-81.06
-88.37
-93.24
-93.61
-87.94
-75.78
-57.97
-36.50
-13.88
7.48
25.79
40.11
50.24
56.49
59.37
59.48
57.45
53.89
49.46
44.74
40.20
36.10
32.56
29.57
27.06
25.07
23.72
23.14
23.41
24.50
26.13
27.87
29.15
29.47
28.48
26.10
22.52
18.15
13.50
8.97
4.81
1.02
-2.56
-6.24
-10.31
-15.00
-20.33
-26.12
-31.95
-37.36
-41.95
-45.54
-48.33
-50.80
-53.65
-57.51
-62.78
-69.29
-76.16
-81.88
-84.51
-82.27
-74.09
-60.02
-41.33
-20.18
0.99
20.01
35.40
46.47
53.23
56.19
56.10
53.75
49.89
45.13
39.96
34.77
29.83
25.40
21.61
18.57
16.35
15.01
14.63
15.18
16.52
18.26
19.79
20.51
19.98
18.15
15.33
12.08
8.88
5.94
3.09
-0.05
-3.86
-8.51
-13.83
-19.41
-24.77
-29.53
-33.50
-36.75
-39.59
-42.52
-46.15
-51.03
-57.32
-64.48
-71.13
-75.32
-75.03
-68.89
-56.67
-39.48
-19.44
0.90
19.26
34.06
44.59
50.87
53.39
52.77
49.69
44.76
38.56
31.69
24.72
18.20
12.58
8.15
5.06
3.31
2.77
3.24
4.47
6.16
8.00
9.69
10.85
11.14
10.23
7.93
4.27
-0.49
-5.86
-11.29
-16.24
-20.45
-23.96
-27.07
-30.30
-34.20
-39.20
-45.53
-53.03
-61.00
-68.17
-72.87
-73.32
-68.23
-57.24
-41.17
-21.83
-1.59
17.30
33.16
45.11
52.97
57.02
57.74
55.67
51.40
45.55
38.85
32.00
25.59
20.00
15.37
11.66
8.81
6.79
5.70
5.68
6.78
8.85
11.45
13.91
15.42
15.16
12.50
7.24
-0.34
-9.49
-19.23
-28.68
-37.38
-45.36
-53.10
-61.18
-69.97
-79.37
-88.66
-96.59
-101.51
-101.80
-96.21
-84.36
-66.88
-45.46
-22.46
-0.28
19.08
34.41
45.28
51.86
54.63
54.18
51.15
46.23
40.21
33.84
27.73
22.21
17.34
13.00
9.15
5.90
3.59
2.60
3.08
4.80
7.03
8.72
8.83
6.72
2.33
-3.76
-10.57
-17.10
-22.74
-27.45
-31.79
-36.68
-43.09
-51.58
-62.08
-73.58
-84.25
-91.71
-93.60
-88.28
-75.41
-56.14
-32.87
-8.60
13.87
32.54
46.47
55.67
60.71
62.36
61.38
58.39
53.99
48.67
42.85
36.84
30.83
24.94
19.32
14.26
10.22
7.61
6.66
7.19
8.53
9.72
9.75
7.88
3.89
-1.87
-8.73
-15.84
-22.59
-28.80
-34.82
-41.45
-49.61
-59.94
-72.27
-85.37
-96.98
-104.28
-104.71
-96.82
-80.77
-58.37
-32.54
-6.44
17.26
36.89
51.83
62.22
68.57
71.46
71.46
69.13
65.08
59.94
54.30
48.53
42.78
37.01
31.19
25.49
20.38
16.45
14.12
13.37
13.62
13.84
12.94
10.10
5.13
-1.58
-9.19
-16.80
-23.80
-30.08
-36.08
-42.71
-50.97
-61.61
-74.69
-89.11
-102.70
-112.48
-115.47
-109.60
-94.44
-71.44
-43.47
-14.04
13.72
37.68
56.89
71.31
81.41
87.75
90.91
91.43
89.95
87.09
83.44
79.40
75.17
70.86
66.56
62.47
58.95
56.38
55.10
55.20
56.46
58.28
59.74
59.81
57.71
53.17
46.55
38.73
30.80
23.58
17.34
11.73
5.97
-0.71
-8.78
-18.12
-28.16
-38.05
-47.01
-54.61
-60.88
-66.37
-72.01
-78.89
-87.94
-99.46
-112.69
-125.67
-135.45
-138.81
-133.22
-117.79
-93.68
-63.77
-31.84
-1.41
25.07
46.45
62.77
74.68
82.96
88.29
91.21
92.20
91.71
90.15
87.80
84.80
81.18
77.00
72.45
67.93
64.02
61.27
60.01
60.20
61.35
62.63
63.08
61.86
58.49
52.97
45.77
37.65
29.43
21.73
14.69
8.07
1.34
-6.02
-14.24
-23.13
-32.10
-40.47
-47.73
-53.74
-58.83
-63.67
-69.16
-76.21
-85.44
-96.92
-109.74
-121.94
-130.67
-132.97
-126.62
-111.06
-87.57
-59.00
-28.81
-0.12
24.92
45.35
61.08
72.49
80.13
84.59
86.47
86.38
84.88
82.35
78.99
74.88
70.18
65.21
60.48
56.61
54.09
53.13
53.58
54.97
56.65
57.99
58.46
57.70
55.57
52.03
47.20
41.37
34.94
28.36
21.98
15.98
10.26
4.54
-1.57
-8.31
-15.71
-23.49
-31.21
-38.37
-44.63
-49.91
-54.43
-58.67
-63.28
-69.02
-76.54
-86.15
-97.38
-108.80
-118.05
-122.30
-119.10
-107.24
-87.27
-61.45
-33.00
-5.20
19.44
39.59
54.98
65.99
73.24
77.36
78.87
78.29
76.12
72.83
68.84
64.46
59.94
55.54
51.56
48.38
46.36
45.72
46.45
48.23
50.47
52.48
53.58
53.35
51.66
48.62
44.50
39.60
34.19
28.47
22.61
16.82
11.26
6.03
1.10
-3.72
-8.73
-14.21
-20.26
-26.82
-33.60
-40.23
-46.29
-51.51
-55.80
-59.34
-62.65
-66.51
-71.72
-78.77
-87.32
-95.97
-102.42
-104.01
-98.67
-85.61
-65.76
-41.45
-15.72
8.57
29.36
45.65
57.33
64.82
68.77
69.78
68.41
65.17
60.66
55.47
50.19
45.30
41.09
37.68
35.08
33.24
32.18
31.92
32.41
33.50
34.86
36.08
36.77
36.61
35.41
33.10
29.77
25.61
20.92
16.06
11.33
6.89
2.68
-1.52
-5.99
-10.95
-16.42
-22.21
-27.98
-33.37
-38.09
-42.08
-45.47
-48.60
-52.01
-56.28
-61.91
-69.00
-76.96
-84.37
-89.11
-88.94
-82.21
-68.49
-48.86
-25.60
-1.55
20.66
39.14
52.93
61.88
66.35
67.02
64.68
60.19
54.39
48.03
41.67
35.69
30.24
25.42
21.26
17.85
15.35
13.96
13.80
14.83
16.78
19.10
21.11
22.15
21.84
20.13
17.32
13.86
10.16
6.46
2.73
-1.17
-5.40
-10.03
-14.99
-20.07
-25.09
-29.84
-34.27
-38.51
-42.86
-47.76
-53.55
-60.28
-67.31
-73.32
-76.49
-74.98
-67.59
-54.24
-36.15
-15.51
5.09
23.34
37.74
47.71
53.45
55.52
54.57
51.13
45.71
38.89
31.39
24.02
17.48
12.17
8.11
5.01
2.51
0.40
-1.27
-2.24
-2.24
-1.20
0.64
2.64
4.05
4.12
2.47
-0.86
-5.40
-10.48
-15.43
-19.86
-23.70
-27.16
-30.61
-34.44
-39.03
-44.57
-51.01
-57.83
-63.95
-67.78
-67.65
-62.24
-51.19
-35.26
-16.29
3.35
21.35
35.99
46.36
52.32
54.26
52.85
48.82
42.89
35.76
28.15
20.72
14.05
8.47
4.06
0.68
-1.92
-3.87
-5.10
-5.42
-4.66
-2.98
-0.96
0.50
0.56
-1.34
-5.15
-10.30
-15.95
-21.29
-25.83
-29.53
-32.74
-36.13
-40.48
-46.43
-54.10
-62.89
-71.29
-77.16
-78.31
-73.23
-61.67
-44.78
-24.78
-4.35
14.12
28.98
39.46
45.58
47.84
46.96
43.73
38.86
33.03
26.74
20.41
14.34
8.71
3.71
-0.51
-3.71
-5.72
-6.46
-6.10
-5.08
-4.08
-3.81
-4.81
-7.28
-11.06
-15.71
-20.77
-25.89
-31.02
-36.38
-42.46
-49.79
-58.61
-68.56
-78.39
-86.13
-89.53
-86.68
-76.79
-60.54
-39.93
-17.69
3.44
21.47
35.32
44.82
50.38
52.63
52.23
49.81
45.97
41.22
36.00
30.54
24.97
19.37
13.91
8.97
5.02
2.50
1.48
1.58
1.99
1.81
0.25
-2.97
-7.67
-13.35
-19.41
-25.47
-31.50
-37.86
-45.19
-54.15
-65.13
-77.88
-91.11
-102.66
-109.80
-110.07
-102.10
-86.17
-64.17
-39.05
-13.93
8.75
27.60
42.32
53.28
61.08
66.26
69.21
70.23
69.66
67.85
65.15
61.87
58.16
54.17
50.09
46.24
43.06
40.93
39.97
39.93
40.19
39.97
38.60
35.74
31.47
26.20
20.37
14.28
7.94
1.14
-6.43
-14.90
-24.12
-33.61
-42.73
-50.91
-57.94
-64.14
-70.29
-77.48
-86.70
-98.31
-111.62
-124.74
-134.82
-138.73
-134.11
-120.06
-97.62
-69.37
-38.73
-8.97
17.51
39.51
56.85
69.97
79.52
86.12
90.30
92.48
92.98
92.07
89.99
86.99
83.35
79.43
75.62
72.30
69.77
68.26
67.84
68.43
69.72
71.18
72.14
71.91
69.94
66.08
60.55
53.90
46.82
39.85
33.21
26.85
20.43
13.48
5.66
-3.13
-12.68
-22.49
-31.96
-40.57
-48.05
-54.50
-60.36
-66.32
-73.23
-81.85
-92.57
-105.04
-117.88
-128.67
-134.44
-132.43
-121.09
-100.68
-73.35
-42.48
-11.64
16.29
39.71
58.27
72.36
82.67
89.78
94.11
95.96
95.68
93.70
90.48
86.46
81.91
77.07
72.20
67.68
64.10
62.00
61.72
63.10
65.45
67.76
69.02
68.55
66.26
62.56
58.13
53.59
49.26
45.14
40.93
36.26
30.84
24.57
17.67
10.57
3.83
-2.15
-7.22
-11.64
-15.94
-20.69
-26.21
-32.49
-39.16
-45.74
-51.85
-57.40
-62.59
-67.93
-74.14
-81.89
-91.61
-103.00
-114.80
-124.70
-129.81
-127.51
-116.33
-96.60
-70.38
-40.86
-11.34
15.55
38.30
56.38
69.91
79.23
84.76
86.99
86.57
84.27
80.87
76.96
72.83
68.55
64.12
59.64
55.45
52.12
50.19
50.00
51.45
54.00
56.70
58.57
58.83
57.16
53.73
49.10
43.91
38.71
33.70
28.80
23.76
18.34
12.53
6.55
0.77
-4.46
-8.98
-12.95
-16.73
-20.78
-25.43
-30.66
-36.20
-41.56
-46.34
-50.35
-53.77
-57.12
-61.09
-66.37
-73.33
-81.77
-90.64
-98.11
-101.85
-99.69
-90.27
-73.63
-51.25
-25.70
0.09
23.49
42.71
56.87
65.91
70.34
70.93
68.60
64.23
58.60
52.39
46.09
40.12
34.81
30.39
27.01
24.74
23.60
23.61
24.76
26.92
29.79
32.85
35.39
36.74
36.43
34.35
30.74
26.09
20.99
15.92
11.18
6.79
2.58
-1.73
-6.41
-11.53
-16.98
-22.43
-27.51
-31.93
-35.62
-38.72
-41.57
-44.64
-48.44
-53.43
-59.76
-67.07
-74.27
-79.65
-81.20
-77.27
-67.08
-51.14
-31.15
-9.52
11.22
29.00
42.60
51.59
56.24
57.18
55.19
51.09
45.63
39.48
33.16
27.08
21.51
16.62
12.56
9.52
7.69
7.20
8.06
10.06
12.73
15.45
17.57
18.54
18.10
16.35
13.58
10.21
6.50
2.48
-1.99
-7.04
-12.69
-18.68
-24.59
-30.05
-34.93
-39.34
-43.67
-48.45
-54.11
-60.86
-68.44
-75.97
-81.94
-84.39
-81.45
-71.98
-56.07
-35.21
-11.98
10.67
30.18
44.97
54.58
59.48
60.58
58.89
55.17
50.02
43.93
37.39
30.86
24.76
19.37
14.80
11.10
8.31
6.55
5.84
6.11
7.05
8.20
9.06
9.31
8.81
7.55
5.55
2.73
-1.08
-5.99
-11.94
-18.64
-25.63
-32.42
-38.64
-44.16
-49.13
-53.97
-59.30
-65.73
-73.62
-82.69
-91.82
-99.07
-102.05
-98.64
-87.72
-69.70
-46.49
-21.01
3.59
24.79
41.16
52.38
59.00
61.95
62.13
60.28
56.90
52.41
47.22
41.74
36.38
31.41
27.03
23.33
20.34
18.12
16.72
16.12
16.13
16.43
16.62
16.30
15.22
13.20
10.20
6.16
1.11
-4.85
-11.48
-18.36
-25.13
-31.49
-37.40
-43.03
-48.78
-55.16
-62.73
-71.77
-82.02
-92.36
-100.78
-104.75
-101.96
-91.15
-72.72
-48.73
-22.38
3.03
24.91
41.91
53.86
61.35
65.20
66.12
64.64
61.19
56.26
50.47
44.45
38.70
33.49
28.85
24.73
21.11
18.15
16.03
14.94
14.90
15.62
16.61
17.18
16.66
14.51
10.50
4.76
-2.23
-9.77
-17.13
-23.80
-29.69
-35.06
-40.49
-46.68
-54.25
-63.62
-74.73
-86.81
-98.19
-106.48
-109.04
-103.80
-90.06
-68.92
-43.01
-15.77
9.62
30.99
47.41
58.94
66.12
69.53
69.63
66.89
61.87
55.38
48.30
41.48
35.54
30.83
27.42
25.28
24.24
24.10
24.59
25.40
26.20
26.70
26.60
25.67
23.67
20.39
15.66
9.53
2.29
-5.58
-13.45
-20.83
-27.44
-33.30
-38.71
-44.17
-50.28
-57.68
-66.82
-77.64
-89.24
-99.78
-106.65
-107.21
-99.61
-83.56
-60.52
-33.35
-5.42
20.24
41.58
57.70
68.59
74.69
76.62
75.01
70.56
64.13
56.67
49.14
42.29
36.50
31.83
28.12
25.25
23.24
22.27
22.52
23.97
26.25
28.61
30.11
29.86
27.30
22.38
15.59
7.77
-0.14
-7.43
-13.79
-19.47
-25.11
-31.57
-39.56
-49.37
-60.52
-71.70
-80.88
-85.73
-84.25
-75.39
-59.48
-38.16
-14.06
10.06
31.83
49.76
63.15
71.88
76.07
75.97
71.96
64.78
55.53
45.59
36.29
28.56
22.79
18.85
16.37
14.99
14.60
15.26
16.99
19.55
22.32
24.32
24.56
22.38
17.72
11.15
3.69
-3.63
-10.14
-15.76
-20.97
-26.60
-33.53
-42.33
-52.96
-64.60
-75.55
-83.49
-86.00
-81.17
-68.41
-48.69
-24.41
1.31
25.40
45.64
60.93
71.08
76.50
77.73
75.32
69.86
62.13
53.15
44.01
35.66
28.64
23.04
18.64
15.21
12.71
11.33
11.25
12.37
14.12
15.51
15.44
13.14
8.45
1.90
-5.57
-12.99
-19.76
-25.83
-31.74
-38.37
-46.62
-56.97
-69.04
-81.49
-92.07
-98.10
-97.26
-88.28
-71.44
-48.56
-22.49
3.70
27.41
46.98
61.68
71.53
76.92
78.35
76.39
71.72
65.14
57.56
49.85
42.66
36.33
30.91
26.30
22.50
19.63
17.95
17.58
18.35
19.67
20.64
20.28
17.83
13.07
6.30
-1.74
-10.12
-18.09
-25.29
-31.88
-38.49
-45.97
-55.08
-66.08
-78.32
-90.14
-99.08
-102.40
-97.96
-84.98
-64.40
-38.66
-10.98
15.52
38.55
56.95
70.52
79.69
85.05
87.21
86.65
83.87
79.39
73.81
67.76
61.78
56.26
51.40
47.25
43.80
41.10
39.30
38.59
39.06
40.43
42.03
42.90
42.09
39.06
33.86
27.17
19.95
13.08
7.00
1.62
-3.59
-9.25
-15.77
-23.16
-31.04
-38.80
-45.83
-51.75
-56.52
-60.51
-64.38
-68.98
-75.08
-83.05
-92.52
-102.19
-109.95
-113.22
-109.80
-98.51
-79.72
-55.34
-28.33
-1.78
21.80
40.98
55.41
65.45
71.77
75.08
75.98
75.01
72.70
69.50
65.78
61.76
57.57
53.33
49.25
45.67
42.92
41.27
40.77
41.26
42.38
43.63
44.50
44.50
43.25
40.51
36.26
30.72
24.33
17.61
11.04
4.93
-0.67
-5.94
-11.15
-16.59
-22.38
-28.45
-34.57
-40.41
-45.69
-50.21
-53.99
-57.22
-60.32
-63.97
-68.85
-75.44
-83.62
-92.40
-99.91
-103.74
-101.63
-92.20
-75.52
-53.22
-28.01
-2.95
19.35
37.30
50.46
59.22
64.44
66.96
67.43
66.27
63.82
60.40
56.40
52.19
48.06
44.18
40.70
37.76
35.64
34.61
34.88
36.35
38.59
40.85
42.30
42.26
40.50
37.23
33.00
28.42
23.94
19.63
15.25
10.43
4.99
-1.00
-7.10
-12.79
-17.68
-21.69
-25.15
-28.53
-32.31
-36.67
-41.45
-46.22
-50.49
-53.98
-56.75
-59.28
-62.33
-66.69
-72.89
-80.81
-89.51
-97.20
-101.62
-100.61
-92.76
-77.93
-57.30
-33.15
-8.24
14.87
34.30
49.09
59.05
64.61
66.52
65.66
62.92
59.09
54.78
50.37
46.07
41.99
38.17
34.74
31.93
29.98
29.05
29.12
30.03
31.43
32.93
34.15
34.73
34.41
32.99
30.39
26.66
22.04
16.85
11.44
6.11
0.97
-3.99
-8.86
-13.74
-18.67
-23.62
-28.51
-33.23
-37.67
-41.70
-45.24
-48.31
-51.05
-53.76
-56.88
-60.90
-66.17
-72.60
-79.48
-85.34
-88.24
-86.18
-77.89
-63.23
-43.45
-20.88
1.79
22.14
38.61
50.58
58.18
61.94
62.45
60.34
56.21
50.77
44.76
38.88
33.64
29.31
25.88
23.22
21.21
19.88
19.33
19.73
21.10
23.23
25.62
27.55
28.29
27.32
24.51
20.16
14.93
9.62
4.82
0.78
-2.74
-6.29
-10.42
-15.48
-21.40
-27.78
-34.02
-39.64
-44.37
-48.28
-51.70
-55.10
-59.05
-64.05
-70.39
-77.85
-85.49
-91.61
-94.06
-90.87
-80.94
-64.53
-43.28
-19.74
3.35
23.73
40.06
51.82
59.17
62.54
62.55
59.91
55.37
49.72
43.67
37.70
32.05
26.75
21.78
17.27
13.55
11.03
10.08
10.74
12.65
15.15
17.42
18.73
18.61
17.02
14.26
10.79
7.08
3.45
-0.10
-3.75
-7.75
-12.30
-17.34
-22.61
-27.78
-32.56
-36.85
-40.82
-44.86
-49.48
-55.16
-62.12
-70.00
-77.74
-83.62
-85.55
-81.69
-71.09
-54.09
-32.40
-8.60
14.46
34.41
49.80
60.19
65.93
67.79
66.62
63.18
58.10
51.91
45.14
38.24
31.66
25.70
20.63
16.62
13.84
12.35
12.10
12.85
14.15
15.45
16.29
16.40
15.80
14.59
12.92
10.74
7.89
4.15
-0.59
-6.20
-12.32
-18.47
-24.26
-29.50
-34.32
-39.10
-44.35
-50.57
-57.96
-66.31
-74.68
-81.54
-84.90
-82.92
-74.44
-59.52
-39.52
-16.79
5.91
26.16
42.35
53.84
60.72
63.49
62.77
59.17
53.30
45.91
37.82
29.87
22.73
16.75
11.98
8.22
5.25
3.00
1.56
1.09
1.65
3.02
4.68
5.90
5.97
4.40
1.13
-3.52
-8.90
-14.27
-19.06
-23.07
-26.51
-29.98
-34.24
-39.97
-47.35
-55.89
-64.35
-70.96
-73.82
-71.43
-63.07
-49.11
-30.88
-10.49
9.78
27.83
42.14
51.94
57.09
58.01
55.41
50.15
43.12
35.20
27.14
19.56
12.87
7.27
2.81
-0.55
-2.87
-4.22
-4.74
-4.69
-4.43
-4.40
-4.96
-6.32
-8.50
-11.34
-14.59
-18.10
-21.86
-26.08
-31.15
-37.51
-45.42
-54.60
-64.10
-72.21
-76.85
-76.06
-68.75
-55.04
-36.38
-15.12
6.13
25.09
40.29
51.04
57.33
59.53
58.17
53.90
47.42
39.51
31.01
22.72
15.30
9.22
4.71
1.82
0.35
-0.03
0.21
0.61
0.69
0.03
-1.65
-4.42
-8.17
-12.56
-17.28
-22.13
-27.25
-33.12
-40.38
-49.51
-60.38
-72.03
-82.59
-89.68
-90.97
-84.92
-71.32
-51.42
-27.67
-3.03
19.72
38.57
52.55
61.57
66.11
66.84
64.41
59.43
52.48
44.19
35.26
26.48
18.58
12.22
7.86
5.68
5.53
6.90
8.97
10.80
11.53
10.60
7.86
3.51
-1.99
-8.18
-14.71
-21.48
-28.72
-36.92
-46.69
-58.40
-71.71
-85.25
-96.60
-102.76
-101.12
-90.40
-71.25
-46.20
-18.87
7.20
29.47
46.87
59.54
68.22
73.60
76.09
75.80
72.95
68.02
61.91
55.63
50.10
45.78
42.70
40.57
39.00
37.69
36.61
35.82
35.44
35.37
35.23
34.43
32.23
28.05
21.65
13.27
3.54
-6.69
-16.64
-25.82
-34.20
-42.11
-50.18
-59.15
-69.71
-82.27
-96.64
-111.75
-125.49
-134.98
-137.23
-130.15
-113.31
-88.25
-58.11
-26.67
2.71
27.87
48.02
63.38
74.65
82.58
87.74
90.52
91.30
90.45
88.28
85.04
80.95
76.24
71.30
66.67
62.93
60.52
59.55
59.71
60.32
60.57
59.71
57.30
53.25
47.81
41.37
34.25
26.58
18.23
9.05
-0.97
-11.61
-22.36
-32.60
-41.85
-50.01
-57.47
-65.00
-73.61
-84.17
-96.96
-111.29
-125.27
-136.03
-140.39
-135.80
-121.31
-97.97
-68.63
-36.99
-6.55
20.31
42.58
60.35
74.26
84.92
92.75
98.01
100.95
101.91
101.22
99.16
95.90
91.59
86.59
81.43
76.84
73.50
71.79
71.63
72.54
73.76
74.58
74.44
73.08
70.48
66.72
61.95
56.22
49.57
42.10
34.07
25.86
17.89
10.46
3.60
-2.99
-9.78
-17.23
-25.54
-34.51
-43.67
-52.43
-60.32
-67.19
-73.28
-79.12
-85.47
-93.13
-102.76
-114.44
-127.42
-139.86
-148.96
-151.64
-145.49
-129.66
-105.31
-75.39
-43.67
-13.69
12.14
32.89
48.80
60.70
69.51
75.90
80.33
83.14
84.63
85.09
84.72
83.59
81.75
79.33
76.68
74.31
72.77
72.41
73.24
74.88
76.64
77.79
77.74
76.18
73.16
69.02
64.14
58.85
53.26
47.31
40.87
33.86
26.42
18.84
11.48
4.54
-1.99
-8.39
-15.01
-22.09
-29.61
-37.31
-44.77
-51.60
-57.57
-62.74
-67.52
-72.61
-78.93
-87.24
-97.67
-109.31
-120.09
-127.10
-127.45
-119.21
-102.16
-77.92
-49.44
-20.14
7.05
30.19
48.51
62.14
71.72
78.03
81.76
83.45
83.50
82.26
80.03
77.06
73.58
69.75
65.71
61.72
58.10
55.28
53.60
53.23
53.98
55.30
56.47
56.81
55.87
53.51
49.83
45.07
39.47
33.21
26.51
19.62
12.86
6.49
0.61
-4.91
-10.41
-16.27
-22.69
-29.55
-36.44
-42.80
-48.23
-52.63
-56.26
-59.72
-63.73
-69.06
-76.24
-85.40
-95.95
-106.38
-114.33
-117.08
-112.41
-99.40
-78.89
-53.27
-25.79
0.44
23.21
41.47
55.06
64.37
69.93
72.26
71.86
69.36
65.40
60.61
55.45
50.22
45.09
40.20
35.71
31.81
28.68
26.44
25.07
24.47
24.38
24.47
24.33
23.53
21.63
18.33
13.57
7.56
0.77
-6.20
-12.80
-18.75
-24.07
-29.10
-34.35
-40.39
-47.69
-56.34
-65.88
-75.07
-81.99
-84.42
-80.48
-69.33
-51.58
-29.22
-5.00
18.30
38.59
54.70
66.33
73.64
77.02
76.90
73.90
68.76
62.41
55.72
49.33
43.53
38.36
33.74
29.74
26.60
24.65
24.11
24.91
26.65
28.66
30.25
30.90
30.41
28.89
26.64
23.98
21.10
18.07
14.77
11.08
6.93
2.39
-2.35
-7.03
-11.46
-15.60
-19.52
-23.50
-27.74
-32.40
-37.36
-42.39
-47.11
-51.18
-54.42
-56.87
-58.84
-60.89
-63.74
-68.09
-74.24
-81.77
-89.38
-94.96
-96.14
-91.03
-78.86
-60.35
-37.53
-13.20
9.87
29.52
44.54
54.65
60.23
61.95
60.54
56.67
50.95
44.05
36.68
29.56
23.26
18.15
14.22
11.30
9.15
7.65
6.87
6.98
8.07
10.00
12.29
14.22
15.01
14.11
11.37
7.08
1.88
-3.52
-8.61
-13.15
-17.23
-21.17
-25.37
-30.24
-36.10
-43.00
-50.60
-57.96
-63.56
-65.67
-62.78
-54.19
-40.37
-22.86
-3.87
14.34
29.95
41.87
49.65
53.36
53.34
50.11
44.37
36.96
28.78
20.69
13.31
6.99
1.72
-2.60
-6.06
-8.63
-10.12
-10.39
-9.49
-7.82
-6.07
-5.01
-5.23
-6.92
-9.83
-13.42
-17.15
-20.71
-24.11
-27.59
-31.63
-36.65
-42.93
-50.34
-58.24
-65.27
-69.63
-69.45
-63.44
-51.45
-34.59
-15.07
4.50
21.81
35.38
44.66
49.80
51.33
49.81
45.83
39.96
32.87
25.27
17.80
10.92
4.84
-0.37
-4.72
-8.07
-10.23
-11.05
-10.63
-9.38
-7.99
-7.28
-7.81
-9.83
-13.13
-17.20
-21.46
-25.56
-29.49
-33.70
-38.84
-45.58
-54.22
-64.31
-74.50
-82.67
-86.39
-83.68
-73.73
-57.28
-36.48
-14.23
6.68
24.31
37.76
47.01
52.44
54.44
53.33
49.46
43.48
36.31
29.03
22.47
17.08
12.78
9.20
6.00
3.11
0.82
-0.39
-0.21
1.24
3.25
4.73
4.56
1.99
-3.11
-10.24
-18.46
-26.80
-34.54
-41.42
-47.61
-53.67
-60.35
-68.40
-78.21
-89.50
-101.00
-110.54
-115.46
-113.45
-103.31
-85.49
-61.99
-35.81
-9.99
13.06
31.95
46.25
56.15
62.11
64.70
64.51
62.18
58.41
53.84
48.95
43.95
38.85
33.57
28.17
23.00
18.62
15.64
14.42
14.76
15.90
16.70
15.94
12.82
7.18
-0.45
-9.11
-17.77
-25.75
-32.91
-39.74
-47.15
-56.16
-67.56
-81.44
-96.87
-111.79
-123.28
-128.29
-124.54
-111.34
-89.92
-63.03
-34.13
-6.31
18.40
39.15
55.99
69.31
79.42
86.43
90.42
91.61
90.44
87.53
83.50
78.86
74.00
69.24
64.94
61.50
59.27
58.47
59.11
60.87
63.15
65.14
65.94
64.81
61.39
55.79
48.66
40.95
33.51
26.78
20.61
14.36
7.30
-1.06
-10.65
-20.93
-31.09
-40.47
-48.77
-56.17
-63.24
-70.77
-79.71
-90.86
-104.58
-120.35
-136.46
-150.05
-157.63
-156.17
-144.09
-121.95
-92.37
-59.15
-26.14
3.73
28.97
49.33
65.33
77.70
87.00
93.59
97.65
99.37
99.00
96.91
93.56
89.39
84.83
80.22
75.92
72.23
69.51
68.07
67.99
69.07
70.69
71.99
72.04
70.21
66.23
60.38
53.27
45.69
38.32
31.57
25.44
19.50
13.14
5.74
-2.96
-12.74
-22.93
-32.71
-41.34
-48.53
-54.47
-59.78
-65.36
-72.25
-81.36
-93.13
-107.06
-121.44
-133.37
-139.43
-136.67
-123.65
-100.99
-71.27
-38.22
-5.61
23.65
47.97
66.91
80.87
90.58
96.79
100.15
101.20
100.39
98.11
94.75
90.61
85.97
81.08
76.22
71.68
67.82
64.96
63.34
62.95
63.49
64.44
65.16
65.08
63.88
61.54
58.16
53.92
48.93
43.16
36.59
29.30
21.56
13.79
6.35
-0.58
-7.10
-13.54
-20.24
-27.35
-34.76
-42.14
-49.06
-55.18
-60.45
-65.08
-69.66
-75.02
-82.01
-91.22
-102.43
-114.29
-124.29
-129.22
-126.20
-113.66
-92.09
-63.95
-32.91
-2.73
23.84
45.43
61.93
73.85
81.78
86.17
87.32
85.70
82.03
77.18
71.99
66.98
62.29
57.84
53.49
49.33
45.73
43.19
42.15
42.72
44.52
46.80
48.60
49.08
47.74
44.55
39.94
34.55
29.08
24.00
19.44
15.22
10.88
5.96
0.14
-6.56
-13.83
-21.12
-27.86
-33.66
-38.43
-42.44
-46.30
-50.75
-56.54
-64.03
-72.89
-81.90
-89.06
-92.00
-88.71
-78.23
-61.05
-39.05
-14.92
8.61
29.39
46.14
58.43
66.33
70.20
70.50
67.75
62.62
55.89
48.40
40.92
34.07
28.19
23.40
19.66
16.87
14.95
13.87
13.55
13.88
14.58
15.29
15.58
15.07
13.48
10.67
6.68
1.71
-3.91
-9.70
-15.22
-20.07
-24.15
-27.67
-31.08
-35.01
-40.04
-46.53
-54.43
-63.15
-71.45
-77.58
-79.54
-75.73
-65.49
-49.41
-29.40
-8.05
12.02
28.89
41.56
49.91
54.28
55.16
53.04
48.39
41.92
34.48
27.02
20.31
14.74
10.33
6.80
3.89
1.49
-0.29
-1.21
-1.16
-0.31
0.82
1.49
0.96
-1.23
-5.06
-10.08
-15.52
-20.66
-25.05
-28.72
-32.15
-36.12
-41.45
-48.67
-57.71
-67.67
-76.85
-83.03
-84.03
-78.39
-65.85
-47.56
-25.72
-3.07
17.91
35.36
48.28
56.46
60.22
60.24
57.36
52.42
46.26
39.55
32.75
26.18
19.97
14.23
9.07
4.74
1.51
-0.38
-0.88
-0.27
0.83
1.57
1.19
-0.75
-4.26
-8.87
-13.96
-18.97
-23.65
-28.19
-33.11
-39.08
-46.72
-56.19
-66.93
-77.47
-85.54
-88.62
-84.73
-73.19
-54.97
-32.52
-8.96
12.74
30.57
43.66
52.12
56.58
57.75
56.33
52.91
48.07
42.36
36.22
29.98
23.75
17.61
11.68
6.24
1.69
-1.54
-3.26
-3.68
-3.46
-3.53
-4.78
-7.70
-12.26
-17.89
-23.82
-29.38
-34.33
-38.95
-43.98
-50.33
-58.69
-69.12
-80.72
-91.52
-98.84
-100.06
-93.38
-78.60
-57.28
-32.30
-6.93
16.00
34.79
48.86
58.44
64.12
66.46
65.95
63.08
58.45
52.80
46.84
41.12
35.84
30.94
26.23
21.61
17.26
13.58
11.02
9.88
9.98
10.62
10.80
9.46
5.93
0.14
-7.37
-15.68
-23.78
-30.98
-37.11
-42.50
-47.87
-54.13
-62.09
-72.17
-84.11
-96.71
-107.79
-114.60
-114.49
-105.81
-88.58
-64.57
-36.82
-8.69
17.07
38.90
56.33
69.67
79.38
85.80
89.14
89.58
87.52
83.55
78.40
72.74
67.10
61.84
57.12
53.05
49.67
47.04
45.22
44.26
44.09
44.50
45.05
45.13
44.18
41.80
37.95
32.93
27.27
21.49
15.91
10.60
5.38
-0.05
-5.97
-12.58
-19.93
-27.83
-35.98
-43.90
-51.11
-57.31
-62.54
-67.25
-72.23
-78.48
-86.76
-97.15
-108.73
-119.45
-126.48
-126.93
-118.79
-101.63
-76.88
-47.37
-16.59
12.33
37.22
57.01
71.59
81.30
86.72
88.46
87.27
83.97
79.36
74.13
68.66
63.04
57.21
51.16
45.15
39.75
35.63
33.38
33.17
34.63
36.95
39.11
40.17
39.53
37.05
32.97
27.79
22.03
16.08
10.11
4.04
-2.38
-9.35
-16.92
-24.88
-32.81
-40.21
-46.72
-52.27
-57.14
-61.98
-67.56
-74.58
-83.30
-93.14
-102.62
-109.42
-110.96
-105.12
-91.03
-69.45
-42.60
-13.56
14.56
39.31
59.24
73.84
83.23
87.91
88.53
85.84
80.65
73.84
66.27
58.65
51.54
45.27
39.96
35.65
32.37
30.18
29.19
29.47
30.90
33.09
35.39
36.98
37.17
35.58
32.29
27.79
22.77
17.80
13.11
8.53
3.59
-2.18
-9.01
-16.72
-24.72
-32.32
-38.93
-44.32
-48.70
-52.63
-56.87
-62.22
-69.20
-77.77
-87.14
-95.66
-101.07
-101.06
-93.90
-79.14
-57.78
-32.16
-5.24
20.09
41.71
58.46
70.07
76.85
79.30
77.96
73.42
66.36
57.71
48.49
39.73
32.13
26.05
21.48
18.20
16.02
14.79
14.46
14.98
16.18
17.72
19.14
19.92
19.58
17.78
14.41
9.60
3.73
-2.65
-8.99
-14.91
-20.26
-25.21
-30.10
-35.35
-41.35
-48.38
-56.42
-64.95
-72.84
-78.33
-79.45
-74.53
-62.83
-44.95
-22.72
1.20
24.05
43.60
58.46
68.07
72.50
72.26
68.10
60.98
52.01
42.26
32.64
23.80
16.04
9.42
3.97
-0.24
-3.07
-4.37
-4.16
-2.79
-0.87
0.80
1.46
0.61
-1.87
-5.67
-10.29
-15.13
-19.83
-24.35
-29.02
-34.47
-41.30
-49.77
-59.42
-68.94
-76.32
-79.36
-76.28
-66.36
-50.19
-29.55
-6.94
15.01
34.06
48.65
58.05
62.21
61.70
57.44
50.58
42.23
33.41
24.88
17.13
10.44
4.98
0.84
-1.93
-3.32
-3.39
-2.39
-0.77
0.78
1.47
0.61
-2.14
-6.66
-12.36
-18.46
-24.28
-29.50
-34.37
-39.55
-45.89
-53.97
-63.70
-74.08
-83.17
-88.56
-88.04
-80.25
-65.25
-44.52
-20.58
3.74
25.95
44.34
58.07
66.95
71.14
70.99
67.04
60.08
51.18
41.57
32.38
24.44
18.05
13.14
9.39
6.54
4.53
3.46
3.39
4.18
5.34
6.07
5.50
2.99
-1.71
-8.28
-15.98
-23.81
-30.95
-36.98
-42.12
-47.17
-53.26
-61.38
-71.89
-84.12
-96.27
-105.72
-109.65
-105.81
-93.25
-72.71
-46.39
-17.49
10.74
35.63
55.64
70.29
79.87
85.04
86.45
84.71
80.39
74.17
66.80
59.07
51.63
44.94
39.22
34.57
31.00
28.49
27.00
26.35
26.27
26.39
26.28
25.57
23.88
20.89
16.40
10.32
2.80
-5.81
-15.00
-24.21
-32.98
-41.07
-48.47
-55.47
-62.56
-70.36
-79.46
-90.12
-101.92
-113.44
-122.38
-125.89
-121.48
-107.86
-85.49
-56.60
-24.59
6.93
34.99
57.80
74.79
86.27
93.02
96.00
96.05
93.92
90.23
85.42
79.80
73.59
66.99
60.28
53.94
48.53
44.55
42.25
41.56
41.96
42.73
43.07
42.36
40.28
36.80
32.11
26.43
19.96
12.76
4.92
-3.48
-12.25
-21.14
-29.88
-38.27
-46.20
-53.76
-61.21
-69.07
-77.95
-88.35
-100.19
-112.45
-123.05
-129.16
-127.97
-117.70
-98.22
-71.25
-39.90
-7.70
22.20
47.67
67.72
82.28
91.80
97.03
98.77
97.88
95.17
91.29
86.70
81.63
76.19
70.51
64.91
59.87
55.93
53.51
52.71
53.25
54.57
55.94
56.69
56.38
54.78
51.96
48.15
43.65
38.69
33.37
27.71
21.74
15.53
9.23
3.06
-2.89
-8.70
-14.56
-20.73
-27.31
-34.18
-41.01
-47.34
-52.79
-57.20
-60.66
-63.63
-66.85
-71.21
-77.51
-86.06
-96.26
-106.53
-114.42
-117.18
-112.58
-99.62
-78.91
-52.53
-23.48
5.04
30.42
50.94
65.96
75.68
80.82
82.36
81.28
78.41
74.42
69.81
64.95
60.10
55.47
51.26
47.68
44.96
43.30
42.84
43.51
45.03
46.85
48.30
48.75
47.82
45.45
41.95
37.80
33.46
29.20
25.05
20.83
16.32
11.41
6.15
0.78
-4.40
-9.17
-13.43
-17.29
-20.98
-24.77
-28.88
-33.41
-38.27
-43.27
-48.18
-52.77
-56.96
-60.83
-64.79
-69.40
-75.25
-82.49
-90.51
-97.76
-101.97
-100.84
-92.72
-77.38
-56.06
-31.16
-5.57
18.16
38.20
53.64
64.34
70.60
73.05
72.44
69.65
65.52
60.76
55.83
50.93
46.09
41.25
36.53
32.20
28.65
26.28
25.33
25.72
27.08
28.80
30.26
30.95
30.59
29.22
27.05
24.40
21.47
18.34
14.91
11.04
6.66
1.88
-3.04
-7.79
-12.12
-15.96
-19.44
-22.82
-26.33
-30.10
-34.10
-38.14
-41.99
-45.42
-48.37
-51.00
-53.75
-57.29
-62.22
-68.69
-76.03
-82.65
-86.35
-85.00
-77.26
-63.10
-43.81
-21.69
0.71
21.09
37.83
50.09
57.73
61.15
61.11
58.55
54.37
49.30
43.86
38.36
33.00
27.99
23.56
19.93
17.20
15.36
14.35
14.08
14.51
15.59
17.19
19.01
20.55
21.33
20.94
19.29
16.58
13.18
9.53
5.90
2.38
-1.08
-4.61
-8.31
-12.30
-16.57
-21.10
-25.77
-30.39
-34.70
-38.51
-41.75
-44.48
-46.99
-49.65
-52.95
-57.19
-62.35
-67.85
-72.49
-74.60
-72.53
-65.17
-52.40
-35.26
-15.70
3.96
21.63
35.87
46.06
52.26
54.92
54.68
52.09
47.70
42.03
35.63
29.06
22.81
17.21
12.44
8.58
5.70
3.88
3.19
3.61
5.00
6.96
8.99
10.51
11.13
10.66
9.23
7.19
4.93
2.76
0.70
-1.50
-4.19
-7.67
-11.92
-16.65
-21.36
-25.62
-29.26
-32.46
-35.68
-39.46
-44.17
-49.83
-55.95
-61.56
-65.32
-65.83
-61.97
-53.21
-39.91
-23.27
-5.15
12.44
27.68
39.40
47.13
50.95
51.33
48.88
44.24
38.08
31.07
23.85
17.05
11.13
6.34
2.72
0.15
-1.50
-2.36
-2.49
-1.98
-0.96
0.34
1.51
2.18
1.96
0.59
-1.99
-5.61
-9.97
-14.65
-19.19
-23.27
-26.73
-29.73
-32.71
-36.27
-41.01
-47.22
-54.64
-62.32
-68.79
-72.27
-71.24
-64.83
-53.14
-37.28
-19.12
-0.78
15.82
29.30
38.97
44.69
46.74
45.59
41.86
36.30
29.77
23.11
16.92
11.56
6.98
2.98
-0.62
-3.81
-6.37
-7.99
-8.48
-7.90
-6.64
-5.30
-4.56
-5.00
-6.94
-10.37
-15.02
-20.39
-25.98
-31.42
-36.66
-41.91
-47.69
-54.50
-62.63
-71.85
-81.23
-89.19
-93.82
-93.31
-86.52
-73.37
-55.09
-33.77
-12.02
7.81
24.03
35.84
43.23
46.70
46.97
44.75
40.70
35.35
29.19
22.63
16.00
9.62
3.83
-1.03
-4.59
-6.61
-7.11
-6.46
-5.31
-4.43
-4.56
-6.14
-9.25
-13.63
-18.79
-24.26
-29.79
-35.46
-41.74
-49.35
-58.89
-70.48
-83.38
-95.88
-105.53
-109.74
-106.50
-95.12
-76.44
-52.68
-26.82
-1.73
20.37
38.27
51.63
60.66
65.80
67.62
66.75
63.94
59.97
55.54
51.08
46.67
42.17
37.46
32.65
28.19
24.72
22.78
22.49
23.38
24.50
24.66
22.87
18.62
12.11
4.04
-4.59
-12.97
-20.74
-28.14
-35.91
-45.04
-56.34
-70.10
-85.60
-101.07
-113.79
-120.63
-118.97
-107.50
-86.84
-59.42
-28.80
1.35
28.23
50.31
67.31
79.68
88.10
93.19
95.44
95.33
93.34
89.98
85.71
80.88
75.83
70.87
66.42
62.93
60.78
60.11
60.75
62.16
63.56
64.12
63.16
60.37
55.87
50.12
43.69
37.01
30.23
23.11
15.26
6.36
-3.64
-14.39
-25.25
-35.49
-44.65
-52.65
-59.97
-67.52
-76.38
-87.39
-100.67
-115.19
-128.79
-138.40
-140.93
-134.10
-117.34
-91.98
-61.05
-28.29
2.77
29.71
51.39
67.84
79.68
87.74
92.74
95.24
95.75
94.73
92.59
89.62
86.04
81.97
77.62
73.37
69.67
66.99
65.62
65.45
65.98
66.46
66.04
64.20
60.80
56.16
50.81
45.25
39.67
33.93
27.60
20.20
11.53
1.74
-8.67
-18.99
-28.55
-36.95
-44.24
-50.94
-57.98
-66.45
-77.08
-89.79
-103.30
-115.20
-122.44
-122.21
-112.88
-94.64
-69.44
-40.46
-11.13
15.72
38.42
56.38
69.80
79.19
85.06
87.86
88.04
86.18
82.95
78.99
74.78
70.56
66.40
62.36
58.65
55.69
53.91
53.57
54.62
56.57
58.66
60.02
59.94
58.01
54.22
48.90
42.61
35.94
29.34
23.03
16.94
10.80
4.23
-3.08
-11.20
-19.90
-28.75
-37.20
-44.76
-51.21
-56.69
-61.77
-67.33
-74.31
-83.29
-94.03
-105.17
-114.32
-118.62
-115.55
-103.90
-84.14
-58.40
-29.80
-1.56
23.76
44.63
60.52
71.63
78.46
81.67
81.90
79.83
76.13
71.48
66.49
61.63
57.19
53.35
50.15
47.71
46.14
45.56
46.01
47.36
49.31
51.38
52.99
53.57
52.69
50.16
46.09
40.91
35.17
29.32
23.59
17.89
11.94
5.47
-1.67
-9.39
-17.46
-25.51
-33.12
-39.91
-45.64
-50.30
-54.25
-58.22
-63.16
-69.92
-78.76
-89.01
-98.88
-105.91
-107.50
-101.79
-88.29
-68.05
-43.35
-17.04
8.23
30.54
48.76
62.49
71.75
76.80
78.11
76.32
72.29
66.91
61.05
55.33
50.15
45.68
41.95
38.98
36.81
35.55
35.35
36.30
38.28
40.92
43.56
45.41
45.79
44.34
41.18
36.75
31.64
26.31
20.93
15.40
9.49
3.04
-3.94
-11.21
-18.43
-25.21
-31.28
-36.61
-41.43
-46.20
-51.50
-57.90
-65.56
-74.05
-82.14
-87.94
-89.30
-84.51
-72.90
-55.08
-32.94
-9.13
13.69
33.38
48.71
59.29
65.34
67.34
65.84
61.44
54.82
46.84
38.46
30.59
23.89
18.70
14.92
12.25
10.40
9.19
8.67
8.94
10.00
11.58
13.17
14.16
14.05
12.61
9.87
6.05
1.40
-3.84
-9.39
-14.95
-20.19
-24.88
-29.03
-32.99
-37.36
-42.74
-49.46
-57.25
-65.15
-71.65
-74.95
-73.47
-66.33
-53.62
-36.46
-16.80
3.16
21.37
36.34
47.26
53.91
56.49
55.44
51.35
44.99
37.23
28.97
21.03
13.99
8.15
3.55
0.07
-2.41
-3.95
-4.46
-3.91
-2.38
-0.20
1.98
3.38
3.29
1.32
-2.46
-7.51
-13.06
-18.33
-22.84
-26.56
-29.94
-33.76
-38.83
-45.61
-53.89
-62.61
-70.04
-74.15
-73.22
-66.34
-53.67
-36.47
-16.74
3.21
21.27
35.88
46.13
51.85
53.39
51.44
46.86
40.51
33.21
25.60
18.20
11.36
5.29
0.12
-4.01
-6.96
-8.60
-8.93
-8.20
-6.92
-5.76
-5.33
-6.00
-7.79
-10.52
-13.92
-17.77
-22.01
-26.70
-32.00
-38.14
-45.33
-53.56
-62.35
-70.61
-76.61
-78.43
-74.49
-64.19
-48.23
-28.48
-7.50
12.21
28.77
41.12
49.09
53.03
53.54
51.28
46.82
40.73
33.56
25.94
18.43
11.57
5.77
1.31
-1.66
-3.10
-3.20
-2.32
-1.03
-0.03
0.06
-1.17
-3.79
-7.59
-12.18
-17.19
-22.41
-27.80
-33.60
-40.22
-48.08
-57.32
-67.46
-77.17
-84.36
-86.71
-82.33
-70.60
-52.44
-30.16
-6.70
15.15
33.47
47.38
56.82
62.21
64.04
62.78
58.93
53.12
46.15
38.85
31.91
25.71
20.30
15.60
11.51
8.14
5.71
4.45
4.32
4.95
5.61
5.45
3.74
0.15
-5.21
-11.78
-18.78
-25.52
-31.60
-37.13
-42.67
-49.12
-57.38
-67.87
-80.10
-92.51
-102.56
-107.41
-104.73
-93.53
-74.56
-50.14
-23.42
2.52
25.37
43.93
57.93
67.68
73.67
76.34
76.11
73.49
69.08
63.64
57.90
52.46
47.66
43.56
40.08
37.14
34.83
33.38
33.02
33.82
35.41
37.07
37.85
36.94
33.96
29.12
23.04
16.56
10.30
4.47
-1.16
-7.14
-14.00
-21.99
-30.91
-40.19
-49.09
-57.00
-63.69
-69.37
-74.68
-80.56
-87.93
-97.51
-109.29
-122.22
-134.17
-142.21
-143.40
-135.72
-118.87
-94.42
-65.33
-35.05
-6.52
18.36
38.77
54.69
66.48
74.61
79.59
82.00
82.40
81.34
79.18
76.17
72.46
68.28
63.98
60.07
57.11
55.51
55.44
56.74
58.95
61.42
63.43
64.34
63.70
61.35
57.32
51.83
45.23
37.89
30.16
22.43
15.00
7.98
1.31
-5.29
-12.20
-19.77
-28.09
-36.98
-46.01
-54.67
-62.52
-69.36
-75.38
-81.11
-87.42
-95.28
-105.40
-117.74
-131.11
-143.13
-150.66
-150.66
-141.17
-122.03
-94.99
-63.20
-30.29
0.58
27.37
49.23
66.25
79.02
88.22
94.46
98.22
99.89
99.82
98.26
95.44
91.55
86.83
81.67
76.60
72.24
69.18
67.81
68.19
69.93
72.26
74.23
74.96
73.97
71.20
67.03
62.05
56.73
51.27
45.57
39.40
32.54
25.00
17.02
9.02
1.47
-5.32
-11.32
-16.84
-22.43
-28.64
-35.73
-43.53
-51.46
-58.81
-65.08
-70.26
-74.90
-80.02
-86.75
-95.92
-107.62
-120.84
-133.49
-142.56
-144.95
-138.29
-121.76
-96.45
-65.14
-31.50
0.86
29.16
51.91
68.79
80.37
87.64
91.63
93.20
92.99
91.38
88.59
84.80
80.28
75.35
70.43
65.98
62.43
60.05
59.01
59.28
60.62
62.57
64.52
65.82
65.92
64.54
61.68
57.57
52.46
46.59
40.03
32.87
25.28
17.54
10.04
3.07
-3.31
-9.33
-15.41
-21.94
-29.06
-36.60
-44.12
-51.09
-57.16
-62.24
-66.60
-70.85
-75.83
-82.36
-91.00
-101.53
-112.70
-122.14
-126.91
-124.23
-112.53
-92.02
-64.77
-34.07
-3.49
24.02
46.66
63.78
75.62
82.82
86.14
86.29
83.95
79.77
74.43
68.58
62.79
57.43
52.66
48.51
45.02
42.33
40.70
40.39
41.47
43.65
46.23
48.34
49.15
48.15
45.30
40.91
35.50
29.61
23.64
17.86
12.38
7.23
2.24
-2.85
-8.37
-14.61
-21.62
-29.09
-36.47
-43.11
-48.63
-53.08
-56.99
-61.23
-66.75
-74.23
-83.73
-94.39
-104.38
-111.15
-112.05
-105.11
-89.80
-67.24
-39.98
-11.27
15.82
39.00
57.03
69.59
76.97
79.82
78.93
75.25
69.72
63.26
56.60
50.23
44.32
38.84
33.74
29.07
25.13
22.35
21.18
21.79
23.94
26.94
29.78
31.46
31.30
29.10
25.26
20.51
15.58
10.99
6.79
2.64
-1.95
-7.37
-13.64
-20.47
-27.34
-33.71
-39.27
-44.01
-48.28
-52.67
-57.85
-64.44
-72.65
-82.03
-91.34
-98.54
-101.27
-97.47
-86.11
-67.64
-43.97
-17.92
7.50
29.86
47.68
60.47
68.45
72.14
72.21
69.36
64.37
58.04
51.17
44.37
38.02
32.25
27.07
22.55
18.88
16.40
15.43
15.98
17.73
19.99
21.89
22.72
22.12
20.19
17.35
14.07
10.63
6.98
2.85
-2.05
-7.77
-14.05
-20.42
-26.38
-31.63
-36.18
-40.29
-44.43
-49.19
-55.13
-62.61
-71.45
-80.67
-88.41
-92.27
-90.06
-80.57
-64.10
-42.46
-18.39
5.21
26.06
42.74
54.74
62.15
65.34
64.83
61.27
55.39
48.04
40.08
32.28
25.16
18.97
13.71
9.30
5.68
2.97
1.39
1.19
2.38
4.65
7.36
9.64
10.64
9.80
6.95
2.42
-3.10
-8.79
-13.94
-18.22
-21.69
-24.82
-28.26
-32.69
-38.52
-45.81
-54.02
-62.04
-68.25
-70.88
-68.41
-60.14
-46.46
-28.77
-9.26
9.79
26.44
39.42
48.16
52.67
53.29
50.56
45.20
38.01
29.88
21.68
14.14
7.74
2.68
-1.08
-3.71
-5.33
-6.01
-5.74
-4.64
-3.05
-1.54
-0.84
-1.54
-3.89
-7.64
-12.24
-17.01
-21.47
-25.55
-29.54
-34.08
-39.81
-47.14
-55.90
-65.18
-73.32
-78.26
-78.05
-71.50
-58.64
-40.83
-20.40
0.01
18.13
32.49
42.55
48.42
50.58
49.54
45.82
39.92
32.51
24.35
16.30
9.05
3.06
-1.51
-4.70
-6.62
-7.44
-7.45
-7.05
-6.77
-7.12
-8.44
-10.73
-13.74
-17.12
-20.64
-24.33
-28.51
-33.64
-40.18
-48.41
-58.19
-68.72
-78.50
-85.47
-87.42
-82.71
-70.88
-52.96
-31.30
-8.85
11.68
28.45
40.79
48.90
53.45
55.09
54.27
51.24
46.26
39.71
32.19
24.45
17.24
11.22
6.76
3.95
2.56
2.10
1.96
1.56
0.47
-1.53
-4.43
-8.10
-12.37
-17.12
-22.36
-28.27
-35.21
-43.62
-53.77
-65.39
-77.39
-87.75
-93.89
-93.43
-84.96
-68.63
-46.22
-20.65
4.94
27.97
46.90
61.27
71.30
77.53
80.50
80.63
78.37
74.20
68.71
62.55
56.34
50.61
45.77
42.03
39.48
38.06
37.53
37.53
37.58
37.17
35.91
33.55
30.09
25.64
20.44
14.65
8.31
1.35
-6.30
-14.59
-23.29
-31.99
-40.36
-48.21
-55.69
-63.28
-71.64
-81.38
-92.77
-105.39
-117.93
-128.17
-133.42
-131.24
-120.24
-100.65
-74.41
-44.62
-14.60
13.00
36.70
56.13
71.61
83.63
92.54
98.44
101.46
101.83
100.00
96.56
92.10
87.13
82.06
77.28
73.20
70.22
68.57
68.24
68.91
69.95
70.66
70.46
69.03
66.31
62.47
57.71
52.19
46.00
39.26
32.12
24.85
17.71
10.88
4.35
-2.10
-8.76
-15.88
-23.49
-31.37
-39.09
-46.21
-52.43
-57.78
-62.59
-67.53
-73.38
-80.94
-90.64
-102.26
-114.60
-125.52
-132.21
-131.99
-123.15
-105.60
-80.99
-52.20
-22.44
5.64
30.42
51.30
68.34
81.75
91.68
98.25
101.62
102.19
100.49
97.15
92.75
87.76
82.55
77.46
72.88
69.19
66.78
65.80
66.14
67.32
68.63
69.32
68.78
66.76
63.35
58.92
53.89
48.60
43.19
37.61
31.66
25.21
18.27
11.06
3.99
-2.49
-8.09
-12.83
-17.03
-21.22
-25.82
-31.04
-36.75
-42.60
-48.21
-53.36
-58.03
-62.53
-67.41
-73.34
-80.94
-90.39
-101.02
-111.22
-118.56
-120.40
-114.75
-100.97
-80.07
-54.46
-27.20
-1.19
21.51
39.98
54.22
64.76
72.26
77.18
79.76
80.17
78.60
75.45
71.24
66.54
61.82
57.46
53.78
51.03
49.42
49.00
49.57
50.68
51.72
52.08
51.32
49.28
46.05
41.92
37.25
32.35
27.39
22.43
17.38
12.12
6.66
1.12
-4.30
-9.45
-14.34
-19.14
-24.04
-29.10
-34.17
-38.98
-43.25
-46.91
-50.16
-53.40
-57.12
-61.75
-67.59
-74.68
-82.64
-90.50
-96.65
-99.12
-96.07
-86.53
-70.74
-50.30
-27.62
-5.27
14.72
31.16
43.71
52.57
58.12
60.83
61.14
59.50
56.47
52.56
48.26
43.99
40.00
36.48
33.58
31.45
30.19
29.85
30.32
31.34
32.53
33.42
33.61
32.86
31.14
28.61
25.53
22.12
18.51
14.71
10.67
6.43
2.09
-2.18
-6.22
-9.97
-13.52
-17.07
-20.83
-24.91
-29.25
-33.67
-37.88
-41.66
-44.90
-47.72
-50.44
-53.55
-57.63
-63.11
-69.96
-77.46
-84.19
-88.18
-87.51
-80.91
-68.26
-50.70
-30.37
-9.77
8.91
24.25
35.73
43.53
48.16
50.15
49.92
47.85
44.31
39.85
35.07
30.56
26.72
23.74
21.60
20.20
19.51
19.50
20.16
21.42
23.04
24.60
25.60
25.59
24.26
21.58
17.85
13.58
9.33
5.45
1.99
-1.29
-4.85
-9.02
-13.93
-19.39
-24.99
-30.27
-34.89
-38.72
-41.91
-44.87
-48.14
-52.26
-57.52
-63.64
-69.70
-74.18
-75.38
-71.89
-63.13
-49.55
-32.55
-14.13
3.71
19.36
31.83
40.78
46.26
48.56
48.12
45.38
40.86
35.17
28.93
22.81
17.33
12.91
9.75
7.87
7.22
7.61
8.78
10.40
12.11
13.48
14.17
13.96
12.79
10.78
8.10
4.87
1.15
-3.14
-8.02
-13.42
-19.11
-24.79
-30.17
-35.12
-39.71
-44.18
-48.88
-54.19
-60.33
-67.26
-74.42
-80.74
-84.72
-84.74
-79.56
-68.79
-53.12
-34.19
-14.17
4.79
21.06
33.70
42.49
47.69
49.82
49.49
47.26
43.62
38.98
33.73
28.22
22.84
18.04
14.22
11.63
10.32
10.04
10.38
10.91
11.28
11.32
10.98
10.22
8.99
7.15
4.55
1.05
-3.34
-8.53
-14.30
-20.38
-26.50
-32.42
-38.01
-43.33
-48.61
-54.29
-60.87
-68.68
-77.63
-86.92
-95.03
-99.96
-99.66
-92.77
-79.03
-59.55
-36.47
-12.47
10.00
29.15
44.04
54.57
61.14
64.36
64.89
63.24
59.80
54.89
48.86
42.16
35.35
29.07
23.91
20.22
18.12
17.44
17.81
18.74
19.79
20.60
20.93
20.63
19.55
17.54
14.44
10.10
4.52
-2.15
-9.60
-17.46
-25.36
-33.10
-40.60
-47.89
-55.14
-62.67
-70.95
-80.46
-91.36
-103.11
-114.15
-122.11
-124.36
-118.84
-104.87
-83.46
-57.04
-28.73
-1.51
22.38
41.72
56.21
66.08
71.92
74.42
74.27
72.20
68.77
64.47
59.62
54.49
49.31
44.37
39.98
36.48
34.08
32.82
32.52
32.81
33.21
33.17
32.30
30.35
27.29
23.20
18.20
12.36
5.70
-1.83
-10.16
-19.11
-28.32
-37.37
-45.97
-54.06
-61.95
-70.30
-79.93
-91.44
-104.82
-119.03
-131.99
-140.86
-142.80
-135.86
-119.59
-95.33
-65.80
-34.37
-4.21
22.37
44.14
60.82
72.71
80.45
84.73
86.29
85.82
83.98
81.24
77.85
73.83
69.11
63.77
58.22
53.18
49.52
47.87
48.37
50.44
53.06
54.99
55.28
53.51
49.84
44.80
39.04
32.95
26.60
19.73
11.96
3.09
-6.79
-17.23
-27.59
-37.29
-46.04
-53.96
-61.58
-69.69
-79.14
-90.51
-103.76
-118.00
-131.28
-140.88
-143.86
-137.95
-122.30
-97.87
-67.22
-33.80
-1.05
28.42
53.06
72.43
86.75
96.55
102.46
105.14
105.22
103.42
100.42
96.75
92.68
88.23
83.31
77.99
72.63
67.87
64.41
62.74
62.83
64.12
65.69
66.55
65.93
63.43
59.04
53.13
46.22
38.89
31.52
24.23
16.79
8.82
-0.03
-9.86
-20.33
-30.83
-40.63
-49.26
-56.71
-63.51
-70.55
-78.87
-89.26
-101.86
-115.87
-129.43
-139.83
-144.04
-139.61
-125.41
-102.11
-72.14
-39.02
-6.43
22.73
46.80
65.33
78.75
87.84
93.35
95.92
96.06
94.23
90.88
86.41
81.12
75.26
69.09
63.00
57.51
53.15
50.29
48.98
48.93
49.49
49.89
49.45
47.71
44.55
40.12
34.69
28.48
21.60
13.99
5.64
-3.39
-12.81
-22.18
-31.05
-39.17
-46.59
-53.70
-61.18
-69.81
-80.15
-92.08
-104.51
-115.33
-121.71
-120.96
-111.36
-92.83
-67.10
-37.19
-6.56
21.75
45.65
64.18
77.25
85.35
89.23
89.69
87.53
83.48
78.16
72.07
65.61
59.03
52.61
46.67
41.56
37.66
35.24
34.31
34.63
35.66
36.75
37.25
36.72
34.93
31.91
27.79
22.76
16.95
10.43
3.26
-4.47
-12.56
-20.75
-28.71
-36.21
-43.22
-49.98
-56.99
-64.83
-74.03
-84.59
-95.80
-106.03
-112.98
-114.20
-107.79
-93.09
-71.05
-43.98
-15.04
12.65
36.66
55.61
69.19
77.76
82.07
82.89
80.95
76.90
71.37
64.98
58.31
51.83
45.85
40.57
36.11
32.60
30.16
28.86
28.60
29.05
29.71
30.00
29.48
27.94
25.45
22.23
18.49
14.31
9.57
4.12
-2.17
-9.19
-16.69
-24.25
-31.49
-38.22
-44.53
-50.83
-57.78
-65.99
-75.72
-86.46
-96.76
-104.37
-106.84
-102.19
-89.75
-70.33
-46.15
-20.09
5.00
26.99
44.69
57.76
66.40
71.01
72.06
70.02
65.47
59.07
51.66
44.09
37.07
31.12
26.47
23.12
20.94
19.79
19.48
19.88
20.71
21.67
22.42
22.61
21.99
20.36
17.57
13.56
8.40
2.36
-4.15
-10.63
-16.68
-22.18
-27.29
-32.40
-38.06
-44.80
-52.94
-62.37
-72.35
-81.42
-87.56
-88.67
-83.22
-70.86
-52.56
-30.53
-7.51
13.96
32.02
45.76
55.03
60.13
61.56
59.82
55.54
49.48
42.49
35.47
29.11
23.76
19.43
15.91
13.00
10.71
9.27
8.98
9.98
12.01
14.44
16.32
16.74
15.13
11.43
6.07
-0.20
-6.63
-12.65
-18.08
-23.03
-27.95
-33.40
-39.93
-47.89
-57.09
-66.68
-75.07
-80.18
-80.04
-73.38
-60.14
-41.58
-19.95
2.12
22.31
38.94
51.15
58.76
62.04
61.50
57.84
51.88
44.52
36.65
29.00
22.06
16.07
11.09
7.10
4.15
2.34
1.78
2.42
3.93
5.66
6.73
6.38
4.12
-0.00
-5.49
-11.57
-17.52
-22.93
-27.84
-32.77
-38.47
-45.65
-54.57
-64.78
-74.92
-82.95
-86.64
-84.22
-74.95
-59.45
-39.51
-17.62
3.70
22.43
37.28
47.72
53.79
55.89
54.58
50.53
44.46
37.16
29.38
21.78
14.88
9.03
4.41
1.15
-0.71
-1.13
-0.30
1.36
3.14
4.20
3.79
1.52
-2.53
-7.85
-13.73
-19.50
-24.83
-29.78
-34.92
-41.07
-49.02
-59.10
-70.73
-82.34
-91.47
-95.52
-92.49
-81.68
-64.01
-41.68
-17.54
5.69
25.96
42.17
53.95
61.47
65.11
65.43
63.05
58.68
53.07
46.92
40.77
34.99
29.76
25.17
21.31
18.32
16.36
15.55
15.77
16.57
17.19
16.73
14.40
9.82
3.12
-5.01
-13.61
-21.75
-28.94
-35.28
-41.47
-48.61
-57.76
-69.40
-83.02
-96.87
-108.26
-114.17
-112.19
-101.31
-82.30
-57.44
-29.94
-2.89
21.29
41.26
56.63
67.66
74.92
79.02
80.55
80.00
77.83
74.49
70.38
65.89
61.36
57.10
53.31
50.19
47.85
46.35
45.71
45.79
46.39
47.13
47.56
47.07
45.17
41.45
35.93
29.03
21.48
14.14
7.55
1.84
-3.44
-8.93
-15.20
-22.49
-30.58
-38.92
-46.90
-54.03
-60.12
-65.30
-70.01
-74.95
-81.02
-89.04
-99.42
-111.71
-124.35
-134.75
-139.85
-136.99
-124.81
-103.77
-76.07
-45.02
-14.09
13.93
37.44
55.99
69.93
79.93
86.64
90.58
92.19
91.93
90.31
87.84
84.91
81.72
78.31
74.74
71.17
67.93
65.41
63.91
63.47
63.84
64.51
64.90
64.41
62.58
59.16
54.14
47.79
40.60
33.18
26.01
19.37
13.18
7.08
0.59
-6.70
-14.93
-23.97
-33.35
-42.51
-50.87
-58.10
-64.15
-69.39
-74.48
-80.32
-87.78
-97.30
-108.50
-119.91
-129.08
-133.07
-129.35
-116.65
-95.50
-68.18
-37.94
-8.24
18.24
39.92
56.41
68.13
75.91
80.61
82.95
83.46
82.49
80.32
77.21
73.42
69.24
64.93
60.80
57.17
54.36
52.59
51.94
52.26
53.16
54.12
54.58
54.17
52.66
49.99
46.23
41.50
35.99
29.91
23.56
17.20
11.01
5.14
-0.45
-5.84
-11.24
-16.90
-22.98
-29.49
-36.20
-42.75
-48.69
-53.78
-58.11
-62.19
-66.85
-73.04
-81.45
-92.11
-104.01
-115.13
-122.68
-123.84
-116.65
-100.64
-77.20
-49.11
-19.80
7.64
31.07
49.55
63.10
72.28
77.75
80.11
79.89
77.67
74.09
69.78
65.25
60.79
56.51
52.45
48.75
45.65
43.49
42.54
42.85
44.16
46.03
47.81
48.88
48.75
47.04
43.63
38.59
32.26
25.08
17.53
9.96
2.49
-4.94
-12.49
-20.24
-28.13
-35.88
-43.14
-49.60
-55.10
-59.71
-63.73
-67.65
-72.11
-77.77
-85.12
-94.16
-104.10
-113.18
-118.87
-118.49
-110.16
-93.42
-69.62
-41.50
-12.42
14.54
37.30
54.92
67.43
75.36
79.38
80.17
78.38
74.70
69.84
64.51
59.20
54.21
49.63
45.46
41.75
38.62
36.30
35.02
34.90
35.81
37.36
38.84
39.51
38.70
36.09
31.87
26.57
20.94
15.52
10.43
5.38
-0.17
-6.66
-14.13
-22.25
-30.39
-37.97
-44.61
-50.28
-55.28
-60.18
-65.65
-72.37
-80.68
-90.29
-100.07
-107.95
-111.44
-108.24
-97.13
-78.41
-53.96
-26.72
0.17
24.16
43.74
58.42
68.48
74.52
77.16
76.91
74.23
69.62
63.66
56.96
50.09
43.52
37.57
32.42
28.16
24.79
22.28
20.52
19.34
18.53
17.81
16.92
15.62
13.71
11.04
7.54
3.18
-1.99
-7.82
-14.09
-20.50
-26.74
-32.60
-38.04
-43.24
-48.64
-54.82
-62.33
-71.35
-81.37
-90.99
-98.02
-100.05
-95.12
-82.51
-63.04
-38.97
-13.29
11.05
31.88
48.04
59.28
65.93
68.52
67.68
64.08
58.42
51.51
44.11
36.83
30.12
24.14
18.94
14.53
10.96
8.40
7.07
7.05
8.17
9.94
11.51
12.01
10.71
7.35
2.19
-4.08
-10.59
-16.64
-21.91
-26.56
-31.15
-36.49
-43.30
-52.03
-62.53
-73.95
-84.61
-92.32
-94.80
-90.32
-78.36
-59.83
-37.00
-12.82
9.82
28.82
43.09
52.46
57.35
58.35
56.06
51.04
44.01
35.79
27.25
19.20
12.20
6.54
2.28
-0.61
-2.25
-2.74
-2.36
-1.55
-0.88
-0.90
-2.03
-4.33
-7.61
-11.45
-15.46
-19.44
-23.56
-28.32
-34.44
-42.51
-52.57
-63.69
-74.00
-80.98
-82.20
-76.17
-62.87
-43.86
-21.75
0.58
20.75
37.25
49.45
57.26
60.88
60.61
56.83
50.17
41.53
32.01
22.75
14.76
8.69
4.79
2.88
2.38
2.52
2.54
1.87
0.29
-2.09
-4.98
-8.11
-11.43
-15.18
-19.78
-25.76
-33.59
-43.56
-55.53
-68.75
-81.67
-92.02
-97.29
-95.36
-85.23
-67.41
-43.90
-17.56
8.57
32.04
51.24
65.41
74.45
78.69
78.84
75.83
70.71
64.47
57.81
51.14
44.66
38.57
33.16
28.84
25.93
24.53
24.30
24.59
24.64
23.72
21.40
17.61
12.52
6.52
0.04
-6.62
-13.37
-20.47
-28.52
-38.24
-50.11
-63.88
-78.21
-90.66
-98.19
-98.10
-88.94
-71.07
-46.67
-18.98
8.57
33.33
53.76
69.39
80.51
87.64
91.27
91.78
89.47
84.78
78.31
70.94
63.62
57.24
52.33
48.99
46.93
45.65
44.74
43.97
43.31
42.78
42.26
41.43
39.77
36.82
32.29
26.19
18.88
10.86
2.65
-5.34
-12.90
-20.02
-26.84
-33.63
-40.81
-48.91
-58.44
-69.52
-81.58
-93.10
-101.75
-104.93
-100.62
-88.09
-68.21
-43.31
-16.39
9.64
32.64
51.47
65.83
75.93
82.09
84.63
83.86
80.23
74.42
67.30
59.82
52.82
46.88
42.33
39.28
37.70
37.46
38.29
39.74
41.23
42.11
41.91
40.34
37.46
33.47
28.68
23.29
17.37
10.94
4.09
-3.00
-10.03
-16.67
-22.69
-28.02
-32.83
-37.49
-42.48
-48.36
-55.46
-63.64
-72.06
-79.12
-82.77
-81.04
-72.81
-58.19
-38.68
-16.65
5.30
25.05
41.31
53.61
62.03
66.80
68.17
66.38
61.85
55.31
47.66
39.94
33.01
27.49
23.65
21.49
20.79
21.18
22.23
23.43
24.32
24.52
23.82
22.14
19.51
15.95
11.48
6.17
0.17
-6.28
-12.87
-19.32
-25.39
-30.91
-35.83
-40.20
-44.25
-48.36
-53.06
-58.78
-65.66
-73.19
-80.12
-84.59
-84.65
-78.87
-66.86
-49.52
-28.80
-7.12
13.18
30.49
43.96
53.47
59.31
61.93
61.82
59.47
55.45
50.40
44.99
39.85
35.39
31.81
29.12
27.21
26.03
25.58
25.91
26.91
28.34
29.69
30.35
29.79
27.68
24.07
19.34
14.09
8.86
3.98
-0.55
-5.05
-9.92
-15.47
-21.74
-28.43
-35.01
-40.97
-45.96
-49.99
-53.42
-56.99
-61.55
-67.84
-76.06
-85.56
-94.73
-101.30
-102.94
-97.95
-85.95
-67.92
-46.00
-22.83
-0.84
18.22
33.47
44.78
52.50
57.18
59.42
59.76
58.70
56.67
53.93
50.67
46.99
43.02
38.94
35.09
31.90
29.78
29.05
29.73
31.51
33.79
35.78
36.72
36.14
34.00
30.63
26.61
22.50
18.65
15.11
11.66
8.01
3.97
-0.45
-5.07
-9.56
-13.73
-17.50
-21.04
-24.64
-28.58
-32.99
-37.79
-42.69
-47.36
-51.53
-55.13
-58.39
-61.79
-65.97
-71.57
-78.83
-87.35
-95.81
-102.21
-104.25
-100.16
-89.22
-72.17
-50.98
-28.22
-6.39
12.70
28.15
39.84
48.12
53.49
56.50
57.59
57.19
55.64
53.25
50.25
46.76
42.92
38.89
34.98
31.56
29.06
27.82
27.96
29.28
31.29
33.29
34.55
34.56
33.15
30.53
27.14
23.51
19.99
16.66
13.34
9.73
5.56
0.84
-4.21
-9.13
-13.53
-17.18
-20.20
-22.99
-26.06
-29.82
-34.32
-39.30
-44.30
-48.81
-52.55
-55.53
-58.08
-60.77
-64.33
-69.46
-76.57
-85.45
-95.00
-103.30
-107.90
-106.53
-97.89
-82.14
-60.93
-36.94
-13.11
8.15
25.39
38.17
46.85
52.13
54.83
55.63
55.03
53.43
51.13
48.30
45.09
41.61
37.99
34.50
31.52
29.46
28.63
29.12
30.68
32.79
34.84
36.27
36.75
36.15
34.52
32.01
28.78
24.94
20.64
15.96
11.02
5.92
0.78
-4.29
-9.18
-13.87
-18.42
-22.97
-27.64
-32.43
-37.23
-41.76
-45.79
-49.25
-52.39
-55.73
-59.98
-65.81
-73.49
-82.68
-92.34
-100.74
-105.78
-105.50
-98.59
-84.88
-65.42
-42.29
-18.15
4.51
23.81
38.80
49.41
56.09
59.54
60.44
59.36
56.85
53.47
49.73
46.07
42.73
39.79
37.23
35.08
33.43
32.49
32.40
33.12
34.47
36.03
37.33
37.90
37.33
35.40
32.05
27.50
22.19
16.66
11.38
6.57
2.10
-2.45
-7.57
-13.55
-20.34
-27.46
-34.28
-40.23
-45.07
-49.04
-52.73
-56.97
-62.53
-69.79
-78.49
-87.57
-95.21
-99.22
-97.61
-89.18
-73.99
-53.38
-29.64
-5.45
16.75
35.20
48.97
57.91
62.48
63.46
61.73
58.09
53.19
47.54
41.56
35.67
30.34
25.98
22.92
21.30
21.05
21.92
23.53
25.47
27.28
28.50
28.75
27.78
25.53
22.18
18.02
13.35
8.36
3.07
-2.61
-8.74
-15.28
-21.99
-28.54
-34.69
-40.34
-45.70
-51.23
-57.55
-65.20
-74.34
-84.41
-94.01
-100.96
-102.87
-97.83
-85.09
-65.46
-41.11
-15.00
9.97
31.59
48.71
61.09
69.09
73.33
74.46
73.12
69.95
65.63
60.76
55.78
50.92
46.23
41.71
37.50
33.92
31.42
30.44
31.06
32.97
35.43
37.48
38.19
37.07
34.07
29.67
24.54
19.28
14.12
8.93
3.31
-3.13
-10.49
-18.58
-26.93
-35.04
-42.52
-49.30
-55.64
-62.12
-69.44
-78.13
-88.28
-99.13
-109.10
-115.90
-117.11
-110.88
-96.58
-75.07
-48.62
-20.24
7.02
30.80
49.75
63.58
72.66
77.73
79.57
78.88
76.32
72.49
67.91
62.98
57.98
52.99
48.11
43.51
39.48
36.42
34.65
34.27
35.05
36.41
37.58
37.82
36.70
34.13
30.38
25.86
20.88
15.55
9.78
3.40
-3.62
-11.10
-18.70
-26.00
-32.66
-38.58
-43.93
-49.25
-55.33
-62.94
-72.50
-83.59
-94.74
-103.52
-107.17
-103.39
-91.19
-71.30
-45.96
-18.33
8.44
31.87
50.56
64.13
72.91
77.57
78.83
77.26
73.40
67.79
61.06
53.87
46.86
40.51
35.11
30.79
27.61
25.62
24.79
24.94
25.71
26.59
27.11
26.97
26.06
24.37
21.82
18.25
13.47
7.43
0.37
-7.18
-14.60
-21.44
-27.60
-33.39
-39.36
-46.17
-54.28
-63.79
-74.15
-84.15
-91.91
-95.36
-92.68
-82.93
-66.45
-44.80
-20.44
3.90
25.84
43.75
56.85
65.06
68.82
68.82
65.92
61.00
54.91
48.42
42.11
36.31
31.13
26.52
22.42
18.88
16.10
14.37
13.98
14.98
17.02
19.32
20.87
20.70
18.24
13.47
6.89
-0.64
-8.23
-15.20
-21.33
-26.76
-32.12
-38.18
-45.76
-55.29
-66.49
-78.14
-88.13
-93.94
-93.34
-85.11
-69.51
-48.21
-23.89
0.61
22.89
41.40
55.48
65.11
70.58
72.30
70.77
66.55
60.43
53.22
45.76
38.63
32.14
26.30
21.06
16.46
12.73
10.21
9.15
9.54
10.92
12.47
13.18
12.20
9.06
3.84
-2.93
-10.39
-17.72
-24.35
-30.20
-35.69
-41.59
-48.77
-57.83
-68.64
-80.21
-90.60
-97.32
-97.97
-90.96
-76.12
-54.83
-29.69
-3.79
20.06
39.95
54.99
65.19
71.05
73.24
72.41
69.19
64.17
57.99
51.23
44.34
37.58
31.06
24.92
19.34
14.69
11.38
9.66
9.41
10.05
10.61
10.07
7.69
3.32
-2.61
-9.29
-15.87
-21.88
-27.44
-33.23
-40.24
-49.39
-60.97
-74.35
-87.75
-98.56
-103.90
-101.55
-90.61
-71.87
-47.60
-20.91
5.10
28.06
46.62
60.36
69.56
74.73
76.52
75.55
72.50
67.97
62.56
56.67
50.58
44.39
38.20
32.18
26.71
22.24
19.16
17.58
17.19
17.29
17.00
15.50
12.26
7.26
0.89
-6.16
-13.20
-19.73
-25.65
-31.33
-37.58
-45.41
-55.59
-68.18
-82.11
-95.16
-104.34
-106.80
-100.71
-85.94
-64.10
-38.05
-11.04
14.20
35.84
53.10
65.93
74.68
79.86
82.01
81.69
79.52
76.10
71.97
67.54
63.05
58.61
54.34
50.41
47.07
44.62
43.27
43.01
43.51
44.14
44.14
42.86
39.92
35.42
29.78
23.64
17.53
11.80
6.42
1.13
-4.44
-10.60
-17.46
-24.88
-32.50
-39.89
-46.64
-52.59
-57.94
-63.24
-69.32
-76.94
-86.34
-96.91
-106.98
-114.06
-115.52
-109.37
-94.97
-73.36
-46.98
-18.94
7.71
30.76
49.11
62.61
71.75
77.24
79.78
79.93
78.22
75.17
71.28
66.95
62.42
57.74
52.92
48.09
43.56
39.82
37.34
36.29
36.48
37.32
38.06
37.99
36.68
34.09
30.49
26.29
21.87
17.38
12.71
7.54
1.54
-5.38
-12.99
-20.70
-27.87
-34.08
-39.35
-44.18
-49.44
-56.01
-64.29
-73.97
-83.74
-91.61
-95.23
-92.63
-82.83
-66.22
-44.48
-20.22
3.80
25.24
42.61
55.39
63.73
68.27
69.77
69.01
66.66
63.21
59.09
54.52
49.66
44.65
39.62
34.83
30.67
27.58
25.92
25.78
26.90
28.67
30.28
30.96
30.22
27.99
24.53
20.35
15.90
11.50
7.17
2.80
-1.79
-6.73
-11.98
-17.39
-22.72
-27.75
-32.39
-36.67
-40.86
-45.41
-50.79
-57.28
-64.70
-72.17
-78.14
-80.72
-78.20
-69.71
-55.49
-36.96
-16.29
4.15
22.36
37.00
47.53
54.00
56.85
56.64
53.99
49.56
43.99
37.96
32.08
26.85
22.51
19.06
16.36
14.19
12.48
11.32
10.88
11.25
12.30
13.61
14.51
14.36
12.69
9.45
4.99
-0.07
-5.05
-9.47
-13.16
-16.36
-19.51
-23.18
-27.85
-33.79
-40.84
-48.40
-55.37
-60.28
-61.64
-58.31
-49.89
-36.99
-21.00
-3.88
12.43
26.36
36.93
43.79
46.97
46.84
43.93
38.93
32.64
25.89
19.38
13.60
8.71
4.66
1.29
-1.50
-3.63
-4.90
-5.16
-4.45
-3.13
-1.83
-1.24
-1.86
-3.87
-7.04
-10.89
-14.87
-18.53
-21.62
-24.18
-26.55
-29.28
-32.99
-38.08
-44.42
-51.23
-57.06
-60.15
-58.97
-52.67
-41.40
-26.35
-9.38
7.40
22.17
33.70
41.41
45.36
45.94
43.80
39.61
34.07
27.84
21.52
15.54
10.11
5.28
1.02
-2.71
-5.76
-7.89
-8.92
-8.88
-8.12
-7.25
-6.95
-7.75
-9.84
-12.99
-16.70
-20.39
-23.63
-26.32
-28.75
-31.48
-35.18
-40.29
-46.78
-53.86
-60.11
-63.71
-63.04
-57.13
-46.11
-31.06
-13.85
3.47
19.16
31.97
41.29
46.99
49.29
48.63
45.65
41.06
35.60
29.86
24.21
18.79
13.62
8.74
4.37
0.89
-1.31
-2.07
-1.59
-0.45
0.56
0.74
-0.31
-2.61
-5.84
-9.65
-13.68
-17.76
-21.87
-26.16
-30.95
-36.64
-43.58
-51.77
-60.54
-68.53
-73.82
-74.48
-69.17
-57.72
-41.20
-21.72
-1.85
16.07
30.43
40.51
46.37
48.62
48.12
45.74
42.22
38.09
33.71
29.27
24.87
20.53
16.34
12.39
8.84
5.88
3.67
2.27
1.63
1.48
1.38
0.78
-0.80
-3.63
-7.66
-12.53
-17.71
-22.75
-27.45
-32.04
-37.05
-43.21
-50.98
-60.31
-70.40
-79.67
-86.00
-87.38
-82.43
-70.92
-53.92
-33.46
-12.06
7.97
25.02
38.33
47.85
54.01
57.34
58.31
57.35
54.86
51.27
47.02
42.51
37.97
33.55
29.33
25.48
22.24
19.92
18.73
18.67
19.38
20.25
20.61
19.98
18.17
15.32
11.73
7.64
3.18
-1.70
-7.09
-13.06
-19.53
-26.30
-33.14
-39.77
-46.05
-51.99
-57.94
-64.52
-72.41
-81.95
-92.70
-103.15
-110.97
-113.63
-109.16
-96.92
-77.77
-53.86
-27.97
-2.83
19.45
37.59
51.13
60.26
65.55
67.79
67.74
66.07
63.26
59.63
55.35
50.54
45.40
40.23
35.44
31.52
28.81
27.46
27.27
27.81
28.51
28.87
28.60
27.54
25.69
23.04
19.54
15.12
9.76
3.53
-3.34
-10.55
-17.78
-24.81
-31.53
-38.02
-44.58
-51.64
-59.75
-69.27
-80.07
-91.23
-100.94
-106.89
-106.72
-98.91
-83.22
-60.99
-34.74
-7.49
17.94
39.56
56.33
68.12
75.38
78.82
79.19
77.20
73.49
68.64
63.17
57.53
52.03
46.86
42.17
38.10
34.81
32.53
31.33
31.16
31.66
32.37
32.72
32.30
30.92
28.60
25.46
21.61
17.03
11.60
5.19
-2.20
-10.31
-18.65
-26.69
-34.08
-40.83
-47.41
-54.60
-63.18
-73.53
-85.22
-96.85
-106.21
-110.77
-108.42
-98.08
-80.11
-56.23
-29.09
-1.63
23.60
44.85
61.26
72.76
79.75
82.84
82.70
79.92
75.12
68.92
61.94
54.76
47.85
41.48
35.82
30.97
27.06
24.25
22.71
22.43
23.17
24.37
25.28
25.14
23.35
19.76
14.66
8.67
2.48
-3.44
-8.95
-14.34
-20.15
-26.98
-35.31
-45.36
-56.85
-68.87
-79.80
-87.50
-89.76
-84.96
-72.62
-53.70
-30.37
-5.40
18.53
39.43
56.17
68.36
76.08
79.62
79.37
75.84
69.74
61.97
53.50
45.20
37.62
30.97
25.16
20.05
15.64
12.12
9.81
8.85
9.05
9.79
10.22
9.55
7.30
3.51
-1.40
-6.76
-12.02
-16.89
-21.44
-26.06
-31.33
-37.91
-46.26
-56.40
-67.63
-78.42
-86.55
-89.66
-85.90
-74.62
-56.62
-33.95
-9.39
14.41
35.35
52.19
64.36
71.84
74.87
73.99
69.98
63.84
56.54
48.85
41.16
33.57
26.07
18.82
12.25
7.00
3.57
2.12
2.30
3.28
4.06
3.73
1.76
-1.88
-6.83
-12.53
-18.43
-24.22
-29.88
-35.74
-42.36
-50.34
-59.98
-70.91
-81.90
-90.89
-95.45
-93.42
-83.67
-66.57
-43.93
-18.58
6.44
28.63
46.43
59.31
67.45
71.39
71.75
69.08
63.95
57.00
48.95
40.45
32.06
24.18
17.08
11.00
6.17
2.79
0.77
-0.26
-0.96
-2.03
-4.00
-7.06
-11.05
-15.68
-20.69
-26.01
-31.78
-38.32
-46.05
-55.39
-66.45
-78.78
-91.01
-100.95
-105.98
-103.82
-93.37
-75.20
-51.46
-25.20
0.49
23.27
41.81
55.67
65.01
70.20
71.66
69.90
65.52
59.18
51.60
43.38
35.06
27.06
19.82
13.78
9.29
6.45
5.03
4.44
3.91
2.70
0.37
-3.17
-7.70
-12.83
-18.29
-24.00
-30.17
-37.34
-46.19
-57.32
-70.76
-85.55
-99.57
-109.88
-113.42
-108.09
-93.41
-70.78
-42.99
-13.41
14.89
39.70
59.78
74.67
84.37
89.19
89.66
86.51
80.71
73.33
65.36
57.57
50.41
43.98
38.24
33.13
28.74
25.31
23.12
22.27
22.49
23.07
23.00
21.26
17.21
10.75
2.49
-6.60
-15.46
-23.45
-30.50
-37.21
-44.63
-53.90
-65.87
-80.58
-96.95
-112.72
-124.79
-129.93
-125.74
-111.43
-88.18
-58.78
-26.83
4.25
31.90
54.74
72.31
84.69
92.18
95.20
94.29
90.30
84.31
77.45
70.63
64.36
58.68
53.35
48.22
43.45
39.50
37.00
36.34
37.41
39.47
41.29
41.60
39.41
34.44
27.09
18.36
9.40
1.09
-6.20
-12.80
-19.56
-27.62
-37.98
-51.02
-66.17
-81.60
-94.51
-101.71
-100.55
-89.77
-70.03
-43.69
-14.15
15.11
41.40
63.14
79.82
91.51
98.54
101.29
100.20
95.93
89.41
81.78
74.14
67.33
61.78
57.51
54.31
51.97
50.36
49.46
49.27
49.73
50.62
51.56
52.01
51.29
48.75
43.86
36.50
27.03
16.26
5.26
-5.06
-14.21
-22.33
-30.03
-38.24
-47.83
-59.31
-72.48
-86.18
-98.30
-106.09
-106.86
-98.84
-81.90
-57.70
-29.25
-0.01
27.04
49.98
67.97
80.91
89.01
92.57
91.98
87.86
81.12
72.87
64.22
56.05
48.85
42.73
37.60
33.30
29.76
27.08
25.43
24.96
25.57
26.83
27.95
28.05
26.29
22.32
16.29
8.91
1.15
-6.09
-12.33
-17.63
-22.51
-27.75
-34.07
-41.99
-51.56
-62.26
-72.88
-81.58
-86.21
-84.88
-76.49
-61.23
-40.62
-17.09
6.59
28.02
45.58
58.50
66.69
70.49
70.39
67.02
61.06
53.30
44.58
35.70
27.32
19.93
13.78
9.02
5.70
3.85
3.42
4.13
5.47
6.75
7.29
6.59
4.52
1.33
-2.57
-6.76
-11.01
-15.37
-20.19
-25.96
-33.16
-41.88
-51.56
-60.83
-67.67
-69.93
-66.00
-55.45
-39.19
-19.26
1.78
21.53
38.21
50.79
58.92
62.65
62.35
58.59
52.10
43.81
34.65
25.47
16.96
9.56
3.49
-1.13
-4.27
-5.93
-6.22
-5.43
-4.09
-2.86
-2.42
-3.22
-5.36
-8.58
-12.43
-16.46
-20.46
-24.52
-29.02
-34.49
-41.35
-49.63
-58.71
-67.24
-73.33
-74.97
-70.66
-59.93
-43.60
-23.62
-2.50
17.26
33.77
45.99
53.66
57.13
56.98
53.93
48.63
41.77
33.98
25.92
18.18
11.26
5.50
1.13
-1.81
-3.35
-3.69
-3.20
-2.42
-1.95
-2.39
-4.13
-7.26
-11.56
-16.59
-21.86
-26.99
-31.92
-36.93
-42.54
-49.28
-57.33
-66.15
-74.35
-79.90
-80.66
-75.10
-62.88
-45.07
-23.86
-1.97
18.17
34.83
47.18
55.13
59.04
59.47
57.08
52.57
46.67
40.02
33.18
26.51
20.22
14.47
9.41
5.26
2.23
0.47
-0.07
0.30
1.06
1.55
1.08
-0.82
-4.31
-9.14
-14.75
-20.51
-26.01
-31.19
-36.51
-42.70
-50.42
-59.76
-69.92
-79.16
-85.13
-85.54
-78.95
-65.22
-45.66
-22.69
0.91
22.64
40.76
54.46
63.65
68.75
70.36
69.14
65.76
60.77
54.73
48.19
41.64
35.54
30.22
25.86
22.45
19.88
17.98
16.61
15.65
15.03
14.61
14.18
13.39
11.82
9.10
5.02
-0.39
-6.83
-13.85
-20.93
-27.71
-33.97
-39.74
-45.24
-50.83
-57.00
-64.27
-72.95
-82.83
-92.86
-101.18
-105.44
-103.45
-93.97
-77.19
-54.78
-29.37
-3.93
19.04
37.88
51.94
61.37
66.82
69.07
68.84
66.75
63.26
58.81
53.77
48.49
43.26
38.26
33.67
29.63
26.33
23.95
22.60
22.15
22.24
22.41
22.17
21.19
19.30
16.49
12.82
8.36
3.15
-2.72
-9.10
-15.74
-22.35
-28.67
-34.54
-40.02
-45.37
-51.03
-57.56
-65.42
-74.57
-84.26
-92.84
-98.08
-97.73
-90.32
-75.65
-55.00
-30.74
-5.66
17.70
37.52
52.85
63.50
69.80
72.41
72.15
69.79
66.03
61.36
56.12
50.53
44.83
39.30
34.27
30.03
26.83
24.80
23.88
23.96
24.70
25.63
26.21
25.95
24.56
22.04
18.67
14.82
10.77
6.56
1.99
-3.20
-9.18
-15.90
-23.07
-30.20
-36.86
-42.73
-47.82
-52.46
-57.32
-63.17
-70.50
-79.14
-87.95
-94.93
-97.68
-94.19
-83.53
-66.25
-44.21
-20.05
3.51
24.33
41.08
53.31
61.17
65.11
65.78
63.87
60.11
55.18
49.65
43.92
38.28
32.93
28.13
24.15
21.31
19.78
19.49
20.11
21.16
22.13
22.61
22.42
21.50
19.91
17.66
14.73
11.08
6.65
1.46
-4.35
-10.59
-16.89
-22.94
-28.47
-33.38
-37.76
-41.90
-46.27
-51.36
-57.56
-64.90
-72.69
-79.54
-83.49
-82.62
-75.60
-62.31
-43.95
-22.68
-1.06
18.73
35.22
47.75
56.27
61.03
62.41
60.90
57.08
51.58
45.10
38.24
31.52
25.31
19.86
15.32
11.69
8.92
6.95
5.77
5.43
5.90
6.99
8.19
8.79
8.11
5.75
1.74
-3.44
-9.10
-14.66
-19.70
-24.19
-28.31
-32.39
-36.86
-42.15
-48.60
-56.20
-64.36
-71.77
-76.58
-76.86
-71.18
-59.18
-41.80
-20.97
0.80
21.21
38.49
51.68
60.48
65.03
65.75
63.19
58.13
51.40
43.93
36.51
29.74
23.95
19.24
15.60
13.00
11.33
10.44
10.14
10.22
10.51
10.91
11.28
11.43
11.06
9.82
7.44
3.88
-0.69
-5.90
-11.33
-16.68
-21.73
-26.43
-30.84
-35.18
-39.83
-45.32
-52.07
-60.11
-68.71
-76.38
-81.08
-80.80
-74.27
-61.36
-43.27
-22.13
-0.47
19.47
36.08
48.54
56.65
60.67
61.02
58.33
53.28
46.68
39.35
32.03
25.28
19.39
14.47
10.42
7.20
4.78
3.23
2.61
2.91
3.93
5.27
6.40
6.74
5.84
3.53
-0.04
-4.46
-9.20
-13.84
-18.14
-22.21
-26.35
-31.04
-36.74
-43.71
-51.84
-60.48
-68.40
-73.95
-75.43
-71.52
-61.74
-46.67
-27.88
-7.53
12.13
29.22
42.53
51.53
56.26
57.11
54.63
49.56
42.68
34.91
27.10
19.94
13.78
8.69
4.56
1.26
-1.17
-2.60
-2.87
-2.12
-0.76
0.52
1.00
0.20
-1.99
-5.24
-9.10
-13.10
-17.05
-21.08
-25.59
-31.10
-38.05
-46.55
-56.06
-65.41
-72.76
-76.11
-73.79
-65.06
-50.45
-31.65
-11.07
8.86
26.15
39.67
49.01
54.24
55.67
53.73
48.96
42.02
33.73
24.94
16.39
8.62
1.94
-3.42
-7.36
-9.83
-10.92
-10.93
-10.45
-10.12
-10.50
-11.88
-14.19
-17.16
-20.45
-23.96
-27.80
-32.32
-37.94
-45.03
-53.75
-63.83
-74.44
-84.13
-90.96
-92.86
-88.27
-76.66
-58.85
-36.92
-13.64
8.27
26.74
40.71
50.00
55.05
56.49
54.91
50.83
44.74
37.18
28.77
20.27
12.40
5.80
0.99
-1.77
-2.57
-1.88
-0.51
0.58
0.56
-1.06
-4.27
-8.69
-13.82
-19.33
-25.14
-31.55
-39.10
-48.33
-59.53
-72.42
-85.95
-98.21
-106.75
-109.15
-103.64
-89.80
-68.73
-42.91
-15.46
10.54
32.74
49.87
61.67
68.59
71.39
70.86
67.69
62.40
55.55
47.75
39.69
32.05
25.41
20.16
16.44
14.16
12.99
12.48
12.10
11.32
9.76
7.12
3.29
-1.72
-7.78
-14.73
-22.50
-31.22
-41.30
-53.23
-67.16
-82.45
-97.30
-108.90
-114.11
-110.51
-97.22
-75.35
-47.62
-17.52
11.68
37.63
59.05
75.59
87.40
94.88
98.49
98.81
96.46
92.12
86.47
80.14
73.70
67.65
62.42
58.29
55.45
53.88
53.37
53.52
53.84
53.75
52.79
50.63
47.11
42.28
36.23
29.08
20.98
12.10
2.71
-6.83
-16.11
-24.87
-33.03
-40.88
-49.01
-58.26
-69.49
-83.14
-98.83
-114.94
-128.70
-136.69
-135.80
-124.24
-102.18
-71.91
-37.05
-1.69
30.69
57.82
78.70
93.35
102.44
106.90
107.72
105.82
102.06
97.13
91.62
85.93
80.39
75.25
70.71
67.02
64.50
63.42
63.93
65.85
68.60
71.23
72.66
71.97
68.74
63.16
55.92
47.94
40.04
32.58
25.52
18.39
10.66
1.92
-7.85
-18.27
-28.69
-38.39
-46.86
-54.07
-60.53
-67.18
-75.13
-85.23
-97.52
-110.85
-122.87
-130.43
-130.45
-121.00
-101.91
-74.98
-43.40
-10.84
19.50
45.42
65.85
80.56
89.91
94.54
95.26
93.01
88.72
83.22
77.20
71.13
65.36
60.17
55.84
52.57
50.55
49.87
50.53
52.31
54.72
57.08
58.53
58.34
56.10
51.89
46.22
39.82
33.32
27.03
20.85
14.40
7.32
-0.49
-8.78
-17.03
-24.66
-31.34
-37.14
-42.51
-48.24
-55.17
-63.93
-74.49
-85.97
-96.49
-103.47
-104.30
-97.13
-81.59
-59.07
-32.35
-4.81
20.46
41.41
57.22
68.02
74.45
77.17
76.69
73.37
67.65
60.22
52.00
44.03
37.23
32.16
29.01
27.61
27.59
28.48
29.86
31.39
32.74
33.68
33.98
33.35
31.50
28.16
23.23
16.80
9.32
1.43
-6.15
-12.91
-18.71
-23.84
-28.95
-34.82
-42.10
-51.10
-61.50
-72.26
-81.62
-87.39
-87.49
-80.52
-66.32
-46.15
-22.39
2.04
24.47
43.09
57.09
66.49
71.73
73.31
71.67
67.26
60.67
52.72
44.45
36.82
30.55
25.89
22.75
20.80
19.70
19.24
19.29
19.79
20.60
21.42
21.82
21.31
19.48
16.05
11.03
4.64
-2.62
-10.15
-17.41
-24.01
-29.90
-35.32
-40.74
-46.80
-54.10
-62.94
-73.10
-83.54
-92.40
-97.35
-96.21
-87.73
-72.07
-50.86
-26.78
-2.71
18.92
36.57
49.64
58.25
62.91
64.31
63.20
60.22
55.93
50.78
45.09
39.18
33.38
28.04
23.54
20.20
18.21
17.59
18.10
19.29
20.59
21.48
21.56
20.68
18.83
16.08
12.45
7.95
2.65
-3.28
-9.52
-15.71
-21.51
-26.72
-31.39
-35.75
-40.28
-45.56
-52.23
-60.62
-70.47
-80.60
-89.02
-93.33
-91.47
-82.36
-66.40
-45.40
-22.02
0.91
21.08
37.06
48.38
55.33
58.56
58.87
57.02
53.67
49.38
44.66
39.88
35.29
31.00
27.04
23.46
20.39
18.11
16.91
16.93
17.99
19.58
20.98
21.51
20.78
18.78
15.81
12.31
8.62
4.84
0.86
-3.60
-8.75
-14.57
-20.82
-27.06
-32.82
-37.79
-41.94
-45.60
-49.30
-53.76
-59.55
-66.81
-74.94
-82.51
-87.42
-87.48
-81.10
-67.91
-49.07
-26.92
-4.30
16.24
33.02
45.34
53.29
57.37
58.24
56.56
53.02
48.32
43.13
37.96
33.09
28.60
24.50
20.82
17.72
15.47
14.35
14.50
15.77
17.72
19.68
20.93
20.89
19.36
16.53
12.94
9.19
5.70
2.53
-0.63
-4.24
-8.63
-13.84
-19.61
-25.46
-30.92
-35.72
-39.92
-43.86
-48.15
-53.43
-60.10
-68.02
-76.32
-83.32
-86.93
-85.20
-76.97
-62.40
-42.95
-21.01
0.75
20.06
35.46
46.40
52.96
55.68
55.22
52.31
47.69
42.10
36.20
30.55
25.49
21.16
17.55
14.61
12.31
10.65
9.64
9.24
9.36
9.85
10.51
11.07
11.22
10.58
8.85
5.75
1.32
-4.19
-10.25
-16.20
-21.51
-25.90
-29.47
-32.63
-35.98
-40.13
-45.52
-52.27
-60.00
-67.75
-74.05
-77.15
-75.46
-68.07
-55.05
-37.62
-17.79
2.14
20.15
34.88
45.69
52.47
55.45
54.99
51.55
45.77
38.45
30.54
22.93
16.29
10.92
6.76
3.60
1.28
-0.22
-0.77
-0.25
1.23
3.20
4.98
5.75
4.96
2.45
-1.49
-6.28
-11.26
-15.95
-20.17
-24.06
-28.06
-32.67
-38.42
-45.57
-54.01
-63.05
-71.40
-77.31
-78.97
-75.02
-65.06
-49.83
-31.04
-10.94
8.35
25.20
38.62
48.18
53.77
55.46
53.58
48.75
41.91
34.16
26.49
19.56
13.64
8.63
4.37
0.79
-1.95
-3.68
-4.33
-4.13
-3.64
-3.60
-4.66
-7.20
-11.19
-16.26
-21.87
-27.50
-32.88
-38.02
-43.25
-49.14
-56.28
-65.02
-75.11
-85.46
-94.19
-98.99
-97.78
-89.42
-74.12
-53.48
-29.96
-6.26
15.36
33.41
47.13
56.31
61.13
61.97
59.45
54.41
47.77
40.41
32.98
25.87
19.29
13.43
8.56
5.04
3.13
2.88
3.92
5.48
6.61
6.45
4.44
0.51
-5.03
-11.57
-18.49
-25.32
-31.88
-38.45
-45.62
-54.14
-64.60
-76.91
-89.98
-101.60
-108.95
-109.31
-101.06
-84.24
-60.68
-33.41
-5.82
19.24
39.91
55.37
65.61
71.03
72.25
70.07
65.39
59.17
52.28
45.30
38.53
32.02
25.81
20.14
15.47
12.29
10.92
11.20
12.46
13.66
13.70
11.83
7.77
1.85
-5.29
-12.93
-20.50
-27.76
-34.90
-42.48
-51.38
-62.48
-76.19
-91.92
-107.86
-121.01
-127.97
-125.90
-113.52
-91.65
-62.99
-31.22
-0.08
27.66
50.46
67.92
80.34
88.33
92.43
93.14
91.01
86.61
80.66
73.92
67.07
60.69
55.23
50.99
48.07
46.42
45.74
45.63
45.62
45.31
44.37
42.59
39.81
35.84
30.46
23.54
15.09
5.40
-5.03
-15.56
-25.59
-34.80
-43.18
-51.14
-59.42
-68.92
-80.51
-94.65
-110.95
-127.79
-142.35
-151.10
-150.72
-139.25
-116.85
-85.87
-50.23
-14.23
18.50
45.65
66.42
81.07
90.47
95.70
97.80
97.62
95.84
92.89
89.00
84.30
78.93
73.12
67.33
62.15
58.20
55.93
55.43
56.35
57.96
59.31
59.56
58.17
55.03
50.38
44.64
38.11
30.86
22.78
13.67
3.54
-7.29
-18.28
-28.79
-38.43
-47.19
-55.57
-64.43
-74.84
-87.59
-102.80
-119.41
-135.04
-146.31
-149.68
-142.60
-124.45
-96.86
-63.20
-27.62
6.14
35.55
59.41
77.61
90.61
99.05
103.61
104.93
103.74
100.73
96.57
91.78
86.71
81.56
76.50
71.79
67.87
65.26
64.39
65.32
67.61
70.32
72.27
72.45
70.25
65.74
59.46
52.19
44.67
37.32
30.15
22.83
14.85
5.80
-4.38
-15.35
-26.39
-36.73
-45.84
-53.70
-60.87
-68.35
-77.27
-88.47
-102.03
-116.91
-130.90
-140.90
-143.71
-136.93
-119.82
-93.61
-61.25
-26.55
6.83
36.14
59.86
77.60
89.70
96.80
99.66
99.08
95.86
90.79
84.67
78.12
71.62
65.49
59.93
55.20
51.58
49.44
49.08
50.53
53.46
57.10
60.36
62.16
61.72
58.87
53.99
47.88
41.36
34.91
28.53
21.80
14.16
5.26
-4.84
-15.61
-26.28
-36.07
-44.57
-51.80
-58.28
-64.87
-72.51
-81.97
-93.45
-106.19
-118.39
-127.33
-130.07
-124.20
-108.75
-84.63
-54.43
-21.76
9.73
37.23
59.17
75.18
85.70
91.42
93.06
91.17
86.27
79.07
70.50
61.70
53.72
47.29
42.63
39.49
37.41
35.94
34.89
34.29
34.29
34.87
35.70
36.13
35.39
32.83
28.11
21.37
13.13
4.13
-4.91
-13.54
-21.63
-29.28
-36.83
-44.68
-53.26
-62.99
-74.06
-86.13
-98.08
-107.86
-112.94
-111.01
-100.83
-82.71
-58.58
-31.33
-4.07
20.69
41.27
56.88
67.31
72.70
73.41
70.08
63.65
55.34
46.35
37.73
30.13
23.78
18.68
14.74
11.98
10.58
10.69
12.25
14.71
17.17
18.51
17.81
14.64
9.17
2.08
-5.70
-13.34
-20.41
-26.97
-33.61
-41.23
-50.73
-62.53
-76.21
-90.21
-101.99
-108.60
-107.56
-97.64
-79.37
-54.89
-27.38
-0.09
24.29
44.13
58.81
68.40
73.31
74.12
71.48
66.15
59.02
51.00
42.90
35.28
28.44
22.48
17.48
13.58
10.99
9.82
9.86
10.56
10.99
10.25
7.74
3.39
-2.32
-8.67
-14.95
-20.85
-26.52
-32.49
-39.60
-48.65
-60.02
-73.36
-87.21
-99.05
-105.81
-104.74
-94.35
-75.08
-49.30
-20.57
7.44
31.89
51.31
65.45
74.84
80.18
82.01
80.67
76.54
70.17
62.42
54.31
46.76
40.41
35.47
31.85
29.26
27.44
26.24
25.61
25.56
26.00
26.66
27.06
26.59
24.61
20.71
14.82
7.30
-1.13
-9.69
-17.75
-25.07
-31.78
-38.28
-45.16
-53.06
-62.61
-74.14
-87.39
-101.03
-112.71
-119.36
-118.17
-107.52
-87.73
-61.05
-31.00
-1.27
25.22
46.85
63.19
74.59
81.67
84.96
84.90
81.93
76.61
69.70
62.15
54.82
48.42
43.23
39.22
36.20
33.91
32.28
31.39
31.33
32.02
33.10
33.96
33.85
32.13
28.48
22.99
16.09
8.42
0.60
-6.89
-13.86
-20.35
-26.65
-33.25
-40.76
-49.72
-60.42
-72.46
-84.53
-94.38
-99.32
-96.97
-86.18
-67.51
-43.19
-16.45
9.46
32.07
50.06
63.10
71.44
75.50
75.65
72.36
66.29
58.41
49.85
41.68
34.70
29.30
25.44
22.88
21.32
20.51
20.37
20.94
22.19
23.93
25.73
26.93
26.79
24.76
20.67
14.77
7.72
0.34
-6.65
-12.84
-18.27
-23.42
-28.98
-35.70
-44.02
-53.91
-64.65
-74.81
-82.48
-85.61
-82.58
-72.64
-56.28
-35.11
-11.56
11.76
32.61
49.46
61.54
68.71
71.16
69.40
64.11
56.24
46.87
37.14
28.02
20.20
14.01
9.47
6.55
5.18
5.30
6.77
9.23
12.09
14.57
15.95
15.72
13.76
10.32
5.88
0.97
-4.04
-9.01
-14.06
-19.57
-25.99
-33.65
-42.45
-51.63
-59.63
-64.45
-64.19
-57.66
-44.98
-27.49
-7.45
12.64
30.65
45.09
55.18
60.63
61.55
58.32
51.67
42.69
32.56
22.45
13.24
5.40
-0.87
-5.55
-8.58
-9.92
-9.58
-7.84
-5.23
-2.57
-0.72
-0.28
-1.53
-4.29
-8.08
-12.31
-16.53
-20.50
-24.31
-28.33
-33.12
-39.16
-46.56
-54.78
-62.48
-67.75
-68.58
-63.52
-52.25
-35.73
-15.98
4.49
23.37
38.97
50.40
57.45
60.33
59.49
55.50
49.04
40.95
32.15
23.58
16.03
10.06
5.88
3.35
2.13
1.72
1.66
1.57
1.21
0.48
-0.67
-2.14
-3.90
-5.87
-8.06
-10.51
-13.36
-16.90
-21.47
-27.37
-34.62
-42.74
-50.56
-56.33
-58.08
-54.20
-44.03
-28.16
-8.40
12.79
32.84
49.77
62.34
70.06
73.00
71.55
66.35
58.34
48.71
38.75
29.55
21.66
14.97
8.91
2.78
-3.77
-10.59
-17.11
-22.70
-27.05
-30.31
-33.06
-35.92
-39.27
-43.07
-46.90
-50.30
-52.93
-54.88
-56.62
-58.87
-62.42
-67.84
-75.12
-83.48
-91.36
-96.61
-97.14
-91.46
-79.26
-61.55
-40.40
-18.32
2.32
19.82
33.36
42.75
48.23
50.22
49.19
45.69
40.36
33.96
27.29
21.11
15.99
12.25
9.95
8.88
8.73
9.15
9.78
10.40
10.85
11.04
10.87
10.14
8.61
6.11
2.62
-1.73
-6.59
-11.61
-16.45
-20.95
-25.08
-28.89
-32.58
-36.46
-40.98
-46.64
-53.75
-62.03
-70.43
-77.11
-79.87
-76.87
-67.23
-51.43
-31.19
-8.94
12.82
32.07
47.57
58.85
66.04
69.66
70.43
69.16
66.50
62.97
58.85
54.30
49.49
44.59
39.95
35.87
32.66
30.49
29.32
28.96
29.06
29.26
29.10
28.33
26.76
24.39
21.30
17.59
13.34
8.63
3.55
-1.75
-7.00
-11.93
-16.36
-20.33
-24.07
-27.99
-32.56
-38.16
-44.89
-52.38
-59.71
-65.49
-68.11
-66.20
-59.06
-46.98
-31.20
-13.61
3.76
19.27
31.91
41.34
47.68
51.27
52.55
51.93
49.91
47.03
43.80
40.58
37.50
34.50
31.45
28.37
25.49
23.22
21.95
21.81
22.61
23.85
24.86
25.04
24.03
21.74
18.45
14.58
10.63
6.94
3.67
0.67
-2.31
-5.56
-9.23
-13.25
-17.39
-21.36
-24.90
-27.89
-30.37
-32.62
-35.05
-38.14
-42.19
-47.04
-51.91
-55.52
-56.43
-53.54
-46.51
-35.93
-23.15
-9.79
2.62
13.04
20.97
26.34
29.38
30.43
29.87
28.13
25.62
22.82
20.05
17.56
15.46
13.72
12.26
11.02
10.00
9.29
9.05
9.38
10.29
11.60
13.03
14.18
14.67
14.24
12.85
10.63
7.86
4.86
1.86
-1.04
-3.83
-6.55
-9.22
-11.90
-14.59
-17.28
-19.92
-22.42
-24.67
-26.58
-28.20
-29.74
-31.54
-33.94
-37.03
-40.53
-43.72
-45.63
-45.24
-41.94
-35.63
-26.84
-16.55
-5.93
3.95
12.30
18.62
22.79
24.85
25.09
23.88
21.68
18.98
16.18
13.59
11.28
9.24
7.37
5.63
4.10
2.96
2.40
2.50
3.24
4.41
5.74
6.90
7.62
7.64
6.80
5.07
2.64
-0.14
-2.79
-4.94
-6.47
-7.58
-8.68
-10.15
-12.18
-14.66
-17.21
-19.47
-21.19
-22.43
-23.46
-24.71
-26.53
-29.09
-32.35
-35.96
-39.35
-41.78
-42.46
-40.70
-36.16
-28.89
-19.48
-8.98
1.38
10.36
17.09
21.25
23.01
22.93
21.69
19.84
17.70
15.38
12.90
10.37
7.95
5.88
4.33
3.34
2.83
2.67
2.75
3.01
3.48
4.13
4.86
5.52
5.89
5.83
5.21
4.03
2.34
0.18
-2.33
-5.09
-7.95
-10.75
-13.32
-15.56
-17.37
-18.83
-20.14
-21.59
-23.54
-26.24
-29.66
-33.38
-36.62
-38.30
-37.49
-33.65
-26.90
-18.02
-8.24
1.17
9.19
15.26
19.25
21.37
21.91
21.17
19.40
16.83
13.78
10.58
7.57
5.02
3.07
1.68
0.79
0.29
0.08
0.16
0.48
0.98
1.59
2.16
2.54
2.58
2.17
1.24
-0.19
-2.06
-4.20
-6.48
-8.75
-10.94
-13.00
-14.94
-16.90
-19.05
-21.66
-24.92
-28.78
-32.91
-36.61
-38.96
-39.13
-36.59
-31.27
-23.58
-14.29
-4.38
5.15
13.39
19.63
23.47
24.84
24.05
21.61
18.19
14.40
10.70
7.43
4.69
2.50
0.76
-0.65
-1.79
-2.59
-2.89
-2.55
-1.53
-0.12
1.25
2.02
1.84
0.65
-1.29
-3.56
-5.79
-7.78
-9.62
-11.55
-13.86
-16.80
-20.48
-24.82
-29.49
-33.95
-37.37
-38.83
-37.55
-33.18
-25.91
-16.52
-6.17
3.91
12.70
19.52
24.12
26.46
26.75
25.23
22.27
18.27
13.69
9.04
4.71
1.02
-1.87
-3.88
-4.98
-5.20
-4.62
-3.44
-1.96
-0.61
0.20
0.16
-0.78
-2.49
-4.71
-7.21
-9.89
-12.76
-16.01
-19.83
-24.34
-29.55
-35.18
-40.57
-44.68
-46.35
-44.59
-39.01
-30.04
-18.91
-7.18
3.65
12.57
19.19
23.58
25.98
26.66
25.74
23.32
19.60
14.97
9.97
5.26
1.45
-1.10
-2.27
-2.30
-1.60
-0.58
0.37
1.01
1.20
0.80
-0.24
-1.96
-4.31
-7.24
-10.70
-14.77
-19.66
-25.53
-32.34
-39.57
-46.22
-50.90
-52.22
-49.30
-41.99
-30.96
-17.58
-3.47
9.80
21.03
29.51
34.98
37.59
37.74
35.95
32.76
28.67
24.10
19.39
14.89
10.92
7.79
5.70
4.63
4.34
4.42
4.40
3.91
2.80
1.11
-0.99
-3.36
-5.90
-8.68
-11.84
-15.55
-20.03
-25.51
-32.01
-39.22
-46.29
-51.90
-54.53
-52.95
-46.67
-36.12
-22.54
-7.59
7.14
20.41
31.44
39.79
45.33
48.11
48.39
46.66
43.58
39.82
35.97
32.38
29.20
26.41
23.97
21.91
20.32
19.39
19.18
19.57
20.17
20.38
19.67
17.67
14.36
10.08
5.37
0.75
-3.45
-7.18
-10.71
-14.45
-18.87
-24.31
-30.78
-37.79
-44.37
-49.17
-50.77
-48.10
-40.79
-29.40
-15.30
-0.30
13.84
25.78
34.85
41.01
44.62
46.18
46.18
44.98
42.85
40.09
37.00
33.97
31.37
29.48
28.41
28.10
28.37
28.98
29.72
30.39
30.87
30.99
30.59
29.51
27.60
24.80
21.14
16.80
12.01
7.11
2.32
-2.14
-6.20
-9.86
-13.19
-16.34
-19.58
-23.28
-27.82
-33.43
-39.85
-46.27
-51.32
-53.46
-51.45
-44.78
-33.91
-20.14
-5.24
9.01
21.27
30.79
37.42
41.51
43.58
44.21
43.86
42.77
41.07
38.75
35.91
32.76
29.62
26.88
24.85
23.71
23.39
23.72
24.38
25.04
25.42
25.28
24.50
23.04
20.96
18.39
15.50
12.34
8.96
5.36
1.63
-2.12
-5.65
-8.79
-11.47
-13.80
-16.09
-18.79
-22.33
-26.97
-32.60
-38.61
-43.89
-47.11
-47.00
-42.85
-34.73
-23.60
-10.99
1.44
12.37
21.03
27.26
31.26
33.38
33.99
33.37
31.80
29.59
27.06
24.46
21.99
19.81
18.00
16.69
16.04
16.18
17.12
18.77
20.82
22.83
24.36
24.99
24.55
23.14
21.07
18.70
16.35
14.09
11.81
9.30
6.34
2.89
-0.99
-5.02
-8.91
-12.37
-15.24
-17.55
-19.56
-21.72
-24.57
-28.41
-33.18
-38.22
-42.38
-44.34
-42.96
-37.76
-29.09
-18.04
-6.14
5.11
14.61
21.80
26.62
29.34
30.33
29.97
28.54
26.35
23.71
20.92
18.28
15.97
14.09
12.67
11.68
11.10
10.90
11.01
11.30
11.66
11.96
12.13
12.13
11.88
11.26
10.12
8.36
5.95
3.03
-0.10
-3.11
-5.73
-7.87
-9.69
-11.51
-13.72
-16.64
-20.36
-24.74
-29.36
-33.54
-36.47
-37.32
-35.43
-30.54
-22.94
-13.37
-3.00
6.98
15.54
22.04
26.23
28.22
28.26
26.70
23.93
20.32
16.31
12.31
8.73
5.86
3.85
2.69
2.26
2.37
2.87
3.62
4.58
5.61
6.55
7.18
7.22
6.46
4.82
2.45
-0.35
-3.14
-5.59
-7.57
-9.20
-10.81
-12.81
-15.53
-19.15
-23.53
-28.28
-32.71
-35.92
-36.95
-35.09
-30.08
-22.31
-12.70
-2.56
6.90
14.78
20.59
24.20
25.67
25.20
23.03
19.58
15.39
11.09
7.18
4.01
1.69
0.16
-0.61
-0.71
-0.17
0.92
2.34
3.75
4.83
5.29
4.97
3.88
2.08
-0.25
-2.92
-5.73
-8.49
-11.18
-13.93
-16.96
-20.53
-24.72
-29.26
-33.50
-36.48
-37.18
-34.87
-29.36
-21.10
-11.12
-0.78
8.61
16.09
21.15
23.80
24.35
23.23
20.88
17.66
13.84
9.68
5.44
1.39
-2.13
-4.84
-6.50
-7.05
-6.61
-5.47
-4.03
-2.70
-1.82
-1.57
-2.03
-3.18
-4.88
-6.94
-9.14
-11.30
-13.37
-15.49
-17.99
-21.15
-25.02
-29.19
-32.80
-34.72
-33.96
-29.99
-22.98
-13.74
-3.49
6.46
14.98
21.31
25.14
26.47
25.64
23.16
19.64
15.65
11.67
8.01
4.80
2.11
0.02
-1.42
-2.13
-2.13
-1.60
-0.85
-0.29
-0.28
-1.06
-2.65
-4.95
-7.77
-10.90
-14.22
-17.70
-21.38
-25.36
-29.85
-34.98
-40.65
-46.41
-51.37
-54.32
-54.08
-49.89
-41.77
-30.58
-17.77
-4.96
6.48
15.68
22.27
26.25
27.89
27.59
25.83
23.09
19.85
16.47
13.16
10.06
7.19
4.65
2.58
1.16
0.51
0.64
1.30
2.14
2.71
2.61
1.61
-0.33
-3.08
-6.40
-10.00
-13.67
-17.31
-21.09
-25.31
-30.35
-36.30
-42.77
-48.80
-52.97
-53.85
-50.46
-42.70
-31.37
-18.00
-4.29
8.26
18.67
26.50
31.81
34.89
36.11
35.84
34.38
32.04
29.06
25.74
22.39
19.33
16.89
15.24
14.47
14.40
14.74
15.14
15.39
15.40
15.22
14.87
14.33
13.45
11.98
9.75
6.69
2.94
-1.30
-5.71
-9.99
-13.94
-17.44
-20.53
-23.41
-26.44
-30.08
-34.66
-40.24
-46.32
-51.86
-55.41
-55.50
-51.16
-42.26
-29.65
-14.92
0.05
13.66
24.86
33.30
39.11
42.66
44.32
44.31
42.80
39.96
36.09
31.68
27.27
23.37
20.26
18.05
16.63
15.83
15.48
15.52
15.96
16.78
17.90
19.05
19.88
19.97
19.01
16.90
13.81
10.06
6.07
2.23
-1.30
-4.50
-7.53
-10.65
-14.21
-18.53
-23.79
-29.79
-35.85
-40.82
-43.34
-42.27
-37.07
-28.07
-16.37
-3.47
9.13
20.27
29.22
35.70
39.74
41.53
41.37
39.65
36.78
33.22
29.41
25.76
22.57
20.05
18.29
17.23
16.78
16.80
17.22
17.99
19.06
20.28
21.36
21.90
21.49
19.92
17.25
13.82
10.11
6.60
3.49
0.82
-1.62
-4.15
-7.12
-10.82
-15.44
-20.93
-26.83
-32.23
-35.95
-36.77
-33.89
-27.24
-17.53
-6.06
5.60
16.08
24.44
30.30
33.71
35.00
34.56
32.73
29.85
26.24
22.27
18.38
14.93
12.22
10.31
9.12
8.48
8.22
8.28
8.70
9.51
10.63
11.84
12.75
12.94
12.15
10.32
7.69
4.62
1.46
-1.54
-4.31
-6.92
-9.47
-12.11
-15.00
-18.35
-22.31
-26.84
-31.53
-35.58
-37.92
-37.53
-33.88
-27.12
-18.08
-8.08
1.57
9.86
16.24
20.54
22.92
23.56
22.75
20.82
18.12
15.06
12.02
9.26
6.91
5.01
3.52
2.43
1.73
1.49
1.73
2.46
3.60
4.87
5.90
6.20
5.45
3.62
0.93
-2.08
-4.89
-7.13
-8.78
-10.12
-11.65
-13.80
-16.80
-20.47
-24.20
-27.11
-28.26
-26.97
-23.00
-16.69
-8.81
-0.38
7.59
14.27
19.10
21.84
22.50
21.31
18.72
15.26
11.44
7.67
4.24
1.31
-1.02
-2.62
-3.44
-3.48
-2.84
-1.70
-0.33
0.97
1.92
2.33
2.03
1.00
-0.64
