1523208564.00
64.000000
-0.00
-0.00
-0.00
-0.00
-0.00
-0.00
-0.00
-0.00
-0.00
-0.00
0.00
0.01
0.01
-0.00
-0.03
-0.05
-0.05
0.00
0.13
0.36
0.66
1.01
1.37
1.72
2.06
2.40
2.79
3.24
3.80
4.42
5.06
5.66
6.20
6.68
7.15
7.68
8.31
9.14
10.09
11.04
11.88
12.56
13.14
13.76
14.65
15.96
17.91
20.32
22.90
25.38
27.58
29.57
31.68
34.32
37.81
42.54
48.15
54.10
59.83
64.97
69.58
74.14
79.34
85.71
93.76
103.00
112.62
121.73
129.77
136.75
143.30
150.75
157.77
166.64
177.95
191.79
206.97
220.57
228.25
225.36
208.53
176.87
132.76
80.05
23.07
-34.94
-92.44
-149.16
-205.23
-260.37
-313.74
-363.87
-409.83
-450.89
-486.48
-515.70
-537.16
-549.13
-549.83
-538.20
-513.99
-478.41
-433.56
-382.07
-326.58
-269.34
-212.06
-156.02
-102.24
-51.58
-5.04
36.53
72.46
102.48
126.73
145.72
160.16
170.75
178.12
182.67
184.68
184.38
182.06
178.05
172.76
166.61
159.93
152.99
145.92
138.79
131.64
124.53
117.51
110.65
104.02
97.68
91.67
85.99
80.66
75.68
71.07
66.84
62.99
59.53
56.44
53.75
51.45
49.52
47.97
46.77
45.88
45.24
44.76
44.31
43.73
42.84
41.49
39.49
36.75
33.20
28.84
23.70
17.93
11.73
5.32
-1.01
-7.02
-12.46
-17.14
-20.90
-23.68
-25.45
-26.27
-26.22
-25.43
-24.04
-22.20
-20.04
-17.66
-15.16
-12.59
-10.00
-7.43
-4.91
-2.42
0.04
2.49
4.97
7.53
10.20
12.98
15.86
18.84
21.94
25.16
28.52
32.03
35.71
39.62
43.65
47.73
51.85
55.99
60.18
64.44
68.85
73.49
78.48
83.68
89.04
94.53
100.11
105.77
111.51
117.31
123.19
129.18
135.00
140.40
145.16
149.05
151.78
152.98
152.17
148.63
143.71
137.89
131.46
124.66
117.63
110.50
103.40
96.45
89.77
83.54
77.62
71.92
66.42
61.12
56.00
51.10
46.45
42.11
38.16
34.45
30.89
27.44
24.10
20.86
17.74
14.78
12.03
9.56
7.31
5.22
3.29
1.52
-0.08
-1.49
-2.65
-3.53
-4.05
-4.21
-4.05
-3.57
-2.82
-1.87
-0.82
0.28
1.34
2.31
3.14
3.76
4.13
4.19
3.91
3.27
2.28
1.00
-0.48
-2.06
-3.67
-5.26
-6.83
-8.39
-9.98
-11.59
-13.16
-14.60
-15.78
-16.70
-17.39
-18.02
-18.85
-20.09
-21.85
-24.09
-26.62
-29.22
-31.73
-34.24
-37.00
-40.40
-44.81
-50.35
-56.87
-63.94
-71.05
-77.89
-84.47
-91.19
-98.68
-107.50
-117.88
-129.57
-142.04
-154.56
-166.64
-178.17
-189.43
-201.03
-213.81
-228.79
-246.93
-268.61
-292.98
-317.59
-338.59
-351.73
-353.79
-343.73
-323.01
-294.85
-263.00
-230.47
-199.10
-169.79
-143.13
-119.80
-100.55
-85.68
-74.76
-66.50
-59.30
-51.85
-43.64
-35.06
-27.18
-21.18
-17.80
-16.99
-17.98
-19.58
-20.74
-21.01
-20.78
-21.08
-23.07
-27.52
-34.38
-42.85
-51.64
-59.58
-66.06
-71.22
-75.91
-81.39
-89.03
-99.99
-114.79
-132.82
-151.80
-167.85
-176.13
-172.30
-154.17
-122.71
-81.97
-37.76
4.24
40.06
68.13
88.92
103.89
114.56
122.02
126.95
129.84
131.25
131.79
131.96
132.04
132.02
131.74
131.06
130.00
128.85
128.02
127.79
128.13
128.44
127.75
125.01
119.55
111.38
101.24
90.39
80.14
71.36
64.21
58.14
52.17
45.38
37.32
28.24
18.93
10.34
3.05
-3.02
-8.67
-15.04
-23.12
-33.30
-45.23
-57.98
-70.40
-81.57
-91.15
-99.42
-107.31
-116.20
-127.60
-142.51
-160.67
-179.93
-196.19
-204.32
-199.67
-179.95
-146.23
-102.86
-56.01
-11.70
25.88
55.02
76.17
90.95
101.11
108.03
112.65
115.61
117.42
118.56
119.36
119.99
120.45
120.59
120.25
119.40
118.18
116.96
116.18
116.00
116.19
115.93
114.19
110.04
103.17
93.99
83.57
73.24
64.12
56.67
50.62
45.13
39.19
32.06
23.55
14.11
4.59
-4.15
-11.54
-17.68
-23.25
-29.29
-36.82
-46.34
-57.62
-69.80
-81.70
-92.30
-101.13
-108.48
-115.36
-123.27
-133.75
-147.83
-165.31
-184.13
-200.37
-208.96
-205.25
-186.70
-154.11
-111.55
-65.03
-20.58
17.51
47.46
69.60
85.38
96.33
103.53
107.70
109.45
109.56
108.94
108.37
108.31
108.71
109.22
109.33
108.79
107.68
106.45
105.71
105.83
106.65
107.41
106.91
104.04
98.23
89.80
79.84
69.79
60.84
53.47
47.29
41.34
34.57
26.37
16.88
6.87
-2.55
-10.58
-17.05
-22.59
-28.38
-35.57
-44.85
-55.99
-68.05
-79.77
-90.10
-98.63
-105.70
-112.31
-119.80
-129.58
-142.71
-159.30
-177.92
-195.34
-206.79
-207.35
-193.57
-165.05
-124.89
-78.75
-33.08
6.98
38.76
62.07
78.32
89.27
96.31
100.20
101.39
100.40
97.97
94.95
92.13
90.03
88.86
88.58
89.04
90.04
91.35
92.71
93.79
94.21
93.58
91.52
87.77
82.26
75.09
66.48
56.83
46.61
36.35
26.63
17.87
10.22
3.52
-2.74
-9.26
-16.64
-25.20
-34.80
-44.92
-54.86
-63.99
-71.97
-78.86
-85.18
-91.86
-100.09
-111.06
-125.52
-143.06
-161.57
-177.23
-185.28
-181.47
-163.72
-133.12
-93.71
-51.14
-10.87
23.45
50.40
70.35
84.43
93.62
98.47
99.33
96.82
92.05
86.52
81.67
78.44
77.11
77.32
78.34
79.53
80.50
81.25
81.93
82.64
83.16
82.85
80.79
76.13
68.44
58.07
46.04
33.84
22.82
13.73
6.42
0.01
-6.72
-14.74
-24.41
-35.31
-46.50
-56.93
-65.84
-73.09
-79.19
-85.16
-92.26
-101.84
-114.81
-131.25
-149.83
-167.58
-180.18
-183.16
-173.32
-150.09
-115.94
-75.64
-34.71
2.31
32.87
56.46
73.81
85.93
93.55
97.06
96.93
94.04
89.69
85.24
81.75
79.72
78.99
79.09
79.46
79.78
80.02
80.32
80.71
80.89
80.19
77.74
72.78
65.03
54.95
43.56
32.18
21.82
12.83
4.73
-3.46
-12.73
-23.49
-35.39
-47.42
-58.43
-67.66
-75.10
-81.53
-88.32
-97.01
-108.99
-124.86
-143.94
-163.80
-180.36
-188.71
-184.65
-166.21
-134.65
-94.22
-50.75
-9.75
25.10
52.55
73.23
88.59
99.84
107.61
112.10
113.53
112.48
109.92
106.98
104.58
103.23
102.94
103.31
103.82
104.01
103.68
102.82
101.53
99.82
97.41
93.79
88.30
80.50
70.38
58.50
45.95
33.98
23.54
14.94
7.73
0.80
-7.08
-16.87
-28.71
-41.96
-55.44
-67.90
-78.56
-87.36
-95.04
-102.83
-112.18
-124.36
-140.11
-159.09
-179.42
-197.53
-208.62
-207.98
-192.64
-162.65
-121.38
-74.48
-28.17
12.72
45.70
70.58
88.68
101.74
111.15
117.78
122.17
124.69
125.76
125.78
125.04
123.72
121.92
119.69
117.20
114.77
112.81
111.70
111.52
111.90
112.01
110.73
107.09
100.65
91.76
81.48
71.13
61.84
54.04
47.38
40.93
33.67
25.00
15.06
4.62
-5.28
-13.83
-20.88
-27.09
-33.56
-41.42
-51.24
-62.78
-75.12
-87.01
-97.47
-106.16
-113.52
-120.68
-129.14
-140.46
-155.54
-173.97
-193.49
-209.95
-218.18
-213.58
-193.84
-160.04
-116.49
-69.33
-24.53
13.80
44.03
66.58
82.88
94.37
102.05
106.68
108.98
109.88
110.32
110.96
111.94
112.97
113.54
113.32
112.37
111.14
110.17
109.80
109.91
109.87
108.81
105.91
100.77
93.48
84.66
75.17
65.85
57.22
49.34
41.88
34.33
26.25
17.62
8.81
0.42
-6.98
-13.30
-18.94
-24.77
-31.71
-40.27
-50.34
-61.20
-71.83
-81.32
-89.28
-95.98
-102.37
-109.80
-119.72
-133.16
-149.99
-168.37
-184.62
-193.91
-191.69
-175.37
-145.43
-105.54
-61.32
-18.64
18.18
47.09
68.22
82.96
92.86
99.15
102.51
103.46
102.57
100.57
98.27
96.27
94.83
93.90
93.20
92.49
91.74
91.02
90.42
89.82
88.89
87.05
83.80
78.88
72.28
64.29
55.26
45.62
35.71
25.91
16.61
8.16
0.72
-5.86
-12.09
-18.66
-26.21
-35.03
-44.84
-54.95
-64.50
-72.86
-79.83
-85.72
-91.32
-97.63
-105.81
-116.82
-130.94
-147.23
-163.07
-174.42
-176.86
-167.08
-144.31
-110.85
-71.47
-31.78
3.49
31.71
52.38
66.45
75.31
80.10
81.50
80.09
76.60
72.09
67.70
64.36
62.56
62.24
62.94
64.02
65.00
65.68
66.12
66.57
67.03
67.19
66.29
63.43
57.92
49.71
39.54
28.70
18.61
10.20
3.61
-1.95
-7.75
-14.98
-24.19
-34.99
-46.23
-56.52
-64.81
-70.85
-75.33
-79.58
-85.20
-93.57
-105.51
-120.93
-138.44
-155.23
-167.31
-170.37
-161.26
-139.16
-106.24
-67.10
-27.32
8.31
36.96
58.08
72.73
82.47
88.53
91.54
91.79
89.67
85.96
81.69
77.85
75.10
73.56
73.04
73.21
73.79
74.66
75.66
76.55
76.85
76.02
73.57
69.35
63.54
56.56
48.91
40.95
32.92
24.88
16.86
8.93
1.26
-5.96
-12.65
-18.98
-25.36
-32.33
-40.30
-49.29
-58.92
-68.61
-77.76
-86.06
-93.60
-100.83
-108.43
-117.38
-128.65
-142.98
-160.14
-178.43
-194.37
-203.36
-201.01
-184.84
-155.35
-116.14
-72.70
-30.65
5.92
35.14
57.12
73.03
84.23
91.70
96.11
98.03
98.21
97.54
96.87
96.73
97.25
98.16
99.03
99.55
99.70
99.73
100.03
100.84
102.00
102.91
102.62
100.29
95.41
88.17
79.34
70.04
61.33
53.81
47.47
41.74
35.77
28.84
20.65
11.41
1.84
-7.17
-14.89
-21.11
-26.28
-31.36
-37.52
-45.57
-55.67
-67.16
-78.91
-89.74
-98.99
-106.77
-113.95
-121.82
-131.80
-144.97
-161.75
-181.25
-201.02
-216.99
-224.22
-218.40
-197.45
-162.58
-118.14
-70.33
-25.11
13.37
43.51
65.80
81.71
92.72
99.82
103.68
105.01
104.76
103.98
103.50
103.73
104.56
105.60
106.47
106.99
107.33
107.87
108.92
110.52
112.26
113.31
112.66
109.48
103.53
95.24
85.69
76.19
67.72
60.61
54.40
48.13
40.86
32.16
22.33
12.25
2.93
-4.96
-11.45
-17.21
-23.29
-30.60
-39.57
-49.98
-61.08
-71.93
-81.74
-90.21
-97.62
-104.79
-112.94
-123.48
-137.53
-155.32
-175.45
-194.59
-207.88
-210.25
-198.22
-171.28
-132.41
-87.13
-41.69
-1.22
31.46
55.94
73.33
85.21
92.87
97.08
98.35
97.33
94.97
92.39
90.63
90.26
91.22
92.84
94.30
94.96
94.74
94.03
93.42
93.19
93.06
92.14
89.31
83.75
75.30
64.60
52.84
41.38
31.18
22.60
15.26
8.31
0.78
-8.04
-18.35
-29.74
-41.36
-52.27
-61.72
-69.52
-76.05
-82.24
-89.35
-98.70
-111.26
-127.14
-144.96
-161.74
-173.25
-175.17
-164.53
-140.96
-107.02
-67.47
-27.69
7.93
36.89
58.67
73.99
83.97
89.48
91.15
89.59
85.65
80.53
75.52
71.71
69.65
69.36
70.37
72.04
73.81
75.32
76.34
76.61
75.69
72.97
67.90
60.33
50.71
40.02
29.44
19.77
11.19
3.09
-5.47
-15.21
-26.22
-37.87
-49.12
-59.04
-67.27
-74.21
-80.90
-88.75
-99.14
-112.83
-129.42
-146.90
-161.64
-169.16
-165.44
-148.46
-119.12
-81.20
-40.15
-1.33
31.45
56.60
74.41
86.23
93.46
97.14
97.90
96.26
92.95
88.86
84.94
81.90
80.09
79.38
79.38
79.66
79.97
80.24
80.49
80.55
79.91
77.80
73.37
66.06
55.96
43.87
31.13
19.19
8.95
0.53
-6.90
-14.64
-23.84
-34.94
-47.43
-60.13
-71.68
-81.21
-88.72
-95.05
-101.77
-110.63
-123.13
-139.80
-159.52
-179.19
-194.11
-199.19
-190.59
-167.30
-131.67
-88.72
-44.49
-4.07
29.57
55.81
75.62
90.40
101.26
108.73
113.07
114.65
114.18
112.59
110.77
109.26
108.20
107.40
106.61
105.70
104.73
103.84
103.00
101.99
100.36
97.61
93.39
87.59
80.33
71.87
62.55
52.70
42.64
32.67
23.06
14.03
5.68
-2.10
-9.65
-17.48
-26.08
-35.81
-46.58
-57.94
-69.24
-79.82
-89.42
-98.26
-107.06
-116.86
-128.85
-143.95
-162.24
-182.35
-201.11
-213.91
-215.89
-203.62
-176.54
-137.45
-91.76
-45.72
-4.52
29.02
54.50
73.21
86.93
97.13
104.71
110.15
113.86
116.31
118.00
119.22
120.02
120.25
119.74
118.51
116.87
115.32
114.32
113.99
114.03
113.70
112.07
108.28
101.94
93.29
83.16
72.79
63.30
55.28
48.59
42.45
35.85
28.12
19.23
9.82
0.86
-6.87
-13.22
-18.72
-24.37
-31.20
-39.79
-50.09
-61.47
-72.95
-83.59
-92.91
-100.96
-108.42
-116.54
-126.76
-140.36
-157.64
-177.24
-195.91
-208.93
-211.38
-199.86
-173.85
-136.10
-91.86
-47.09
-6.73
26.42
51.81
70.40
83.65
92.89
99.05
102.82
104.88
105.97
106.72
107.45
108.19
108.62
108.45
107.66
106.48
105.41
104.92
105.13
105.64
105.60
104.00
100.02
93.44
84.72
74.86
65.02
56.05
48.25
41.27
34.36
26.85
18.48
9.57
0.89
-6.83
-13.26
-18.71
-24.09
-30.47
-38.56
-48.39
-59.26
-70.10
-79.94
-88.25
-95.15
-101.40
-108.15
-116.76
-128.37
-143.28
-160.45
-177.06
-188.84
-191.20
-180.78
-156.85
-121.82
-80.60
-38.95
-1.73
28.33
50.76
66.67
77.67
85.01
89.35
90.93
90.03
87.25
83.53
79.96
77.43
76.36
76.59
77.64
78.88
79.88
80.48
80.79
80.90
80.68
79.62
77.01
72.23
65.01
55.71
45.27
34.93
25.74
18.25
12.24
6.86
0.93
-6.54
-15.97
-27.04
-38.77
-50.01
-59.78
-67.66
-73.94
-79.45
-85.42
-93.18
-103.84
-117.87
-134.52
-151.50
-165.07
-170.93
-165.55
-147.53
-118.30
-81.79
-43.12
-7.00
23.51
47.31
64.80
77.07
85.11
89.59
91.02
90.05
87.59
84.69
82.26
80.80
80.31
80.37
80.54
80.52
80.34
80.29
80.57
81.09
81.33
80.46
77.69
72.60
65.40
56.87
48.04
39.87
32.90
27.03
21.68
16.04
9.50
1.90
-6.35
-14.43
-21.57
-27.46
-32.45
-37.55
-43.85
-52.07
-62.09
-73.10
-83.88
-93.45
-101.52
-108.49
-115.40
-123.55
-134.14
-147.90
-164.49
-182.16
-197.54
-206.30
-204.27
-189.08
-161.09
-123.65
-81.96
-41.45
-6.16
22.07
43.40
59.10
70.62
78.97
84.68
88.06
89.56
89.81
89.57
89.42
89.64
90.16
90.76
91.29
91.77
92.46
93.61
95.26
97.02
98.07
97.44
94.34
88.54
80.51
71.34
62.30
54.42
48.02
42.69
37.50
31.46
23.93
14.91
5.04
-4.76
-13.59
-21.00
-27.22
-33.02
-39.52
-47.60
-57.56
-68.98
-80.85
-92.02
-101.72
-109.87
-117.13
-124.70
-134.03
-146.41
-162.45
-181.49
-201.08
-217.10
-224.64
-219.43
-199.50
-166.14
-123.63
-77.90
-34.62
2.36
31.58
53.57
69.87
82.04
91.18
97.97
102.84
106.32
108.89
110.98
112.77
114.19
115.06
115.31
115.02
114.51
114.15
114.15
114.35
114.22
112.95
109.75
104.14
96.29
86.91
77.09
67.85
59.75
52.69
46.01
38.92
30.89
22.02
12.81
3.96
-4.14
-11.60
-19.01
-27.20
-36.79
-47.86
-59.97
-72.23
-83.77
-94.00
-102.91
-111.04
-119.47
-129.57
-142.65
-159.34
-178.84
-198.43
-213.63
-219.29
-211.28
-188.15
-151.90
-107.47
-61.07
-18.25
17.53
45.24
65.59
79.99
89.72
95.61
98.25
98.31
96.72
94.58
92.82
92.07
92.40
93.47
94.67
95.46
95.55
95.00
94.11
93.18
92.25
90.88
88.29
83.61
76.30
66.51
55.15
43.60
33.24
24.93
18.61
13.43
7.98
0.95
-8.40
-19.94
-32.80
-45.71
-57.51
-67.61
-76.14
-83.98
-92.44
-102.99
-116.87
-134.54
-155.08
-175.77
-192.26
-199.52
-193.43
-172.32
-137.83
-94.46
-48.22
-4.76
32.08
60.74
81.53
95.73
104.78
109.84
111.83
111.54
109.84
107.58
105.51
104.22
103.99
104.79
106.39
108.45
110.63
112.60
114.02
114.42
113.33
110.24
104.90
97.38
88.12
77.75
66.94
56.14
45.54
35.18
25.07
15.32
6.14
-2.33
-10.10
-17.48
-25.02
-33.31
-42.76
-53.41
-64.87
-76.46
-87.40
-97.21
-105.86
-113.99
-122.83
-133.95
-148.79
-167.76
-189.45
-210.30
-225.05
-228.20
-215.93
-187.63
-146.37
-97.96
-49.06
-5.09
30.94
58.58
79.02
93.96
104.74
112.16
116.69
118.86
119.44
119.25
119.03
119.19
119.76
120.51
121.19
121.69
122.06
122.52
123.16
123.78
123.78
122.27
118.36
111.59
102.17
91.00
79.43
68.73
59.60
51.93
44.87
37.32
28.47
18.22
7.29
-3.18
-12.16
-19.30
-25.13
-30.93
-38.09
-47.49
-59.13
-72.06
-84.89
-96.38
-105.96
-113.88
-121.22
-129.49
-140.31
-154.91
-173.41
-194.28
-213.96
-227.40
-229.29
-215.95
-186.87
-145.10
-96.47
-47.61
-3.99
31.41
58.12
77.45
91.24
101.09
108.04
112.68
115.52
117.12
118.09
118.94
119.93
121.02
121.93
122.35
122.15
121.45
120.59
119.89
119.43
118.88
117.55
114.62
109.48
101.93
92.41
81.81
71.24
61.71
53.77
47.31
41.70
35.99
29.36
21.45
12.48
3.18
-5.59
-13.21
-19.60
-25.24
-31.06
-37.99
-46.64
-56.99
-68.44
-79.98
-90.61
-99.69
-107.15
-113.63
-120.22
-128.39
-139.52
-154.47
-172.89
-192.63
-209.78
-219.33
-216.65
-199.24
-167.75
-126.05
-80.00
-35.59
2.77
33.01
55.25
70.88
81.56
88.57
92.69
94.41
94.21
92.78
90.90
89.33
88.65
89.02
90.30
92.06
93.84
95.22
96.00
96.03
95.15
93.15
89.72
84.70
78.13
70.26
61.56
52.50
43.48
34.73
26.41
18.60
11.36
4.66
-1.68
-8.07
-14.99
-22.89
-31.89
-41.73
-51.83
-61.48
-70.10
-77.51
-84.00
-90.30
-97.60
-107.25
-120.38
-137.15
-156.06
-173.69
-185.23
-185.90
-172.72
-145.78
-108.50
-66.45
-25.55
9.84
37.72
58.28
72.90
83.06
89.66
93.09
93.56
91.57
88.09
84.39
81.64
80.53
81.12
82.92
85.17
87.15
88.41
88.86
88.57
87.58
85.73
82.62
77.70
70.53
61.05
49.73
37.57
25.82
15.63
7.52
1.21
-4.33
-10.42
-18.12
-27.76
-38.88
-50.44
-61.31
-70.75
-78.65
-85.52
-92.31
-100.20
-110.40
-123.83
-140.65
-159.59
-177.69
-190.53
-193.42
-182.95
-158.46
-122.46
-80.03
-37.10
1.34
32.48
55.80
72.38
83.83
91.42
95.84
97.46
96.70
94.24
91.02
87.95
85.70
84.57
84.51
85.28
86.60
88.22
89.83
91.12
91.68
91.09
89.02
85.24
79.74
72.60
64.06
54.37
43.96
33.28
22.92
13.36
4.97
-2.27
-8.77
-15.31
-22.77
-31.80
-42.52
-54.47
-66.75
-78.43
-88.92
-98.21
-106.84
-115.84
-126.44
-139.80
-156.54
-176.11
-196.30
-213.20
-221.87
-217.89
-198.98
-166.06
-123.23
-76.48
-31.73
6.82
37.42
60.46
77.53
90.30
100.00
107.25
112.41
115.81
117.88
119.14
120.02
120.73
121.24
121.39
121.02
120.14
119.01
118.00
117.37
117.00
116.25
114.14
109.72
102.54
92.93
81.96
71.03
61.38
53.60
47.42
41.96
36.12
29.04
20.46
10.84
1.04
-7.93
-15.48
-21.72
-27.48
-34.04
-42.54
-53.45
-66.29
-79.87
-92.67
-103.58
-112.29
-119.41
-126.22
-134.37
-145.43
-160.39
-179.03
-199.33
-217.36
-227.94
-226.07
-208.77
-176.46
-132.98
-84.52
-37.50
3.30
35.69
59.85
77.39
90.13
99.51
106.37
111.25
114.60
116.92
118.68
120.17
121.46
122.40
122.76
122.40
121.47
120.34
119.52
119.33
119.63
119.74
118.60
115.17
108.89
99.97
89.34
78.36
68.25
59.71
52.64
46.31
39.71
31.99
22.89
12.81
2.65
-6.52
-14.08
-20.04
-25.17
-30.66
-37.67
-46.71
-57.59
-69.38
-80.93
-91.33
-100.25
-108.03
-115.64
-124.50
-136.06
-151.35
-170.17
-190.49
-208.28
-218.32
-215.74
-197.91
-165.65
-123.09
-76.39
-31.68
6.63
36.69
58.74
74.24
84.76
91.51
95.35
96.97
97.17
96.71
96.27
96.22
96.61
97.26
97.96
98.57
99.05
99.52
99.97
100.21
99.82
98.23
94.89
89.58
82.44
73.94
64.69
55.22
45.83
36.63
27.66
19.01
10.90
3.53
-3.13
-9.37
-15.79
-23.04
-31.52
-41.20
-51.57
-61.78
-71.03
-78.84
-85.35
-91.29
-97.91
-106.69
-118.91
-134.97
-153.79
-172.51
-186.72
-191.62
-183.54
-161.38
-127.22
-85.78
-42.87
-3.63
28.78
53.45
71.12
83.14
90.63
94.22
94.27
91.30
86.35
80.78
76.01
73.04
72.20
73.08
74.88
76.79
78.26
79.19
79.73
80.02
79.90
78.83
76.03
70.78
62.78
52.36
40.52
28.63
18.00
9.37
2.67
-2.95
-8.82
-16.10
-25.35
-36.31
-48.02
-59.24
-69.00
-76.98
-83.61
-89.95
-97.36
-107.23
-120.55
-137.39
-156.46
-174.74
-187.89
-191.26
-181.46
-157.73
-122.47
-80.65
-38.08
0.26
31.55
55.23
72.31
84.32
92.48
97.46
99.60
99.29
97.12
93.95
90.70
88.07
86.45
85.87
86.14
86.96
88.05
89.11
89.84
89.82
88.53
85.48
80.42
73.54
65.35
56.57
47.78
39.23
30.89
22.53
13.97
5.31
-3.17
-11.12
-18.37
-25.11
-31.95
-39.65
-48.83
-59.64
-71.69
-84.05
-95.74
-106.06
-114.98
-123.22
-132.09
-143.13
-157.63
-175.87
-196.58
-216.53
-230.98
-234.80
-224.10
-197.85
-158.49
-111.38
-63.06
-19.34
16.23
42.73
61.25
73.83
82.40
88.35
92.54
95.50
97.65
99.45
101.25
103.25
105.47
107.71
109.79
111.64
113.35
115.13
117.08
118.99
120.35
120.41
118.50
114.34
108.11
100.35
91.65
82.40
72.71
62.52
51.84
40.88
30.04
19.66
9.77
-0.05
-10.49
-22.17
-35.30
-49.46
-63.78
-77.26
-89.22
-99.60
-108.91
-118.18
-128.67
-141.67
-158.02
-177.51
-198.21
-216.31
-226.71
-224.47
-206.62
-173.45
-128.73
-78.47
-29.01
14.80
50.54
78.04
98.45
113.25
123.63
130.42
134.28
135.97
136.28
135.93
135.43
135.03
134.74
134.52
134.32
134.14
134.01
133.86
133.55
132.79
131.16
128.24
123.67
117.20
108.78
98.53
86.77
74.01
60.84
47.93
35.81
24.74
14.62
4.99
-4.76
-15.19
-26.43
-38.20
-49.83
-60.56
-69.84
-77.63
-84.42
-91.21
-99.41
-110.49
-125.51
-144.39
-165.26
-184.23
-196.06
-195.62
-179.68
-148.31
-104.98
-55.58
-6.51
37.15
72.53
98.98
117.21
128.41
133.68
134.14
130.98
125.54
118.98
111.97
104.49
96.03
86.09
74.67
62.55
51.12
41.75
35.25
31.47
29.41
27.61
24.67
19.77
12.79
4.21
-5.17
-14.53
-23.32
-31.38
-38.80
-45.90
-52.87
-59.82
-66.71
-73.44
-79.94
-86.30
-92.80
-99.98
-108.59
-119.39
-132.65
-147.55
-161.72
-171.34
-172.03
-160.30
-134.87
-97.46
-52.33
-5.12
38.86
75.93
104.60
125.31
139.62
149.34
155.88
160.04
162.05
161.83
159.30
154.65
148.42
141.43
134.55
128.40
123.26
119.02
115.22
111.17
106.07
99.25
90.36
79.55
67.40
54.68
41.99
29.47
16.77
3.24
-11.55
-27.54
-44.11
-60.25
-75.04
-87.99
-99.21
-109.41
-119.63
-131.01
-144.41
-159.98
-176.60
-191.61
-201.20
-201.21
-188.67
-163.13
-127.18
-85.90
-45.21
-10.08
16.83
35.45
47.44
54.94
59.52
61.81
61.77
59.34
54.92
49.32
43.49
38.17
33.60
29.71
26.34
23.44
21.12
19.42
18.03
16.37
13.79
9.85
4.54
-1.82
-8.92
-16.66
-25.16
-34.51
-44.44
-54.35
-63.54
-71.55
-78.45
-84.74
-91.07
-97.94
-105.73
-114.59
-124.45
-134.62
-143.31
-147.65
-144.21
-130.31
-105.32
-71.35
-32.84
4.93
37.40
61.99
78.24
87.23
90.52
89.47
84.93
77.57
68.20
58.00
48.42
40.75
35.72
33.25
32.48
32.25
31.49
29.70
26.93
23.65
20.28
16.98
13.39
8.89
2.82
-5.24
-15.27
-26.85
-39.21
-51.44
-62.75
-72.68
-81.18
-88.68
-95.96
-104.06
-113.97
-126.41
-141.28
-157.23
-171.40
-179.71
-177.69
-161.92
-131.34
-87.97
-36.64
16.33
64.99
105.23
135.53
156.51
169.84
177.21
179.67
177.75
171.92
163.06
152.48
141.54
131.18
121.50
111.99
102.05
91.53
80.98
71.33
63.28
56.54
49.75
40.74
27.53
9.14
-13.79
-39.18
-64.21
-86.31
-103.95
-116.97
-126.46
-134.26
-142.47
-152.98
-166.80
-183.44
-200.44
-213.53
-217.67
-208.65
-184.79
-147.79
-102.33
-54.57
-10.21
26.92
55.42
75.75
89.41
97.91
102.46
103.87
102.71
99.52
94.81
89.14
83.05
77.03
71.51
66.85
63.20
60.43
58.06
55.33
51.31
45.24
36.76
26.03
13.71
0.69
-12.24
-24.66
-36.71
-49.14
-63.15
-80.03
-100.28
-122.72
-144.00
-159.04
-162.39
-150.38
-122.67
-82.71
-36.68
8.59
47.81
78.32
100.03
114.43
123.24
127.71
128.48
125.89
120.36
112.57
103.37
93.65
84.19
75.61
68.26
62.28
57.47
53.32
49.11
44.01
37.31
28.64
18.05
5.98
-6.89
-19.87
-32.58
-45.00
-57.71
-71.75
-88.27
-107.85
-129.64
-150.74
-166.48
-171.57
-161.94
-136.49
-97.81
-51.54
-4.51
37.40
70.70
94.57
110.07
118.91
122.54
121.88
117.59
110.40
101.34
91.59
82.16
73.77
66.73
61.15
56.98
54.06
51.95
49.93
47.00
42.11
34.58
24.29
11.74
-2.16
-16.39
-30.18
-43.15
-55.48
-67.91
-81.73
-98.28
-118.12
-140.07
-160.69
-174.71
-176.57
-162.60
-132.64
-90.46
-42.54
4.11
44.14
75.02
96.71
110.69
118.63
121.78
120.95
116.86
110.39
102.53
94.25
86.15
78.55
71.51
65.13
59.61
55.11
51.59
48.54
45.05
39.98
32.42
22.06
9.29
-4.88
-19.22
-32.84
-45.42
-57.44
-70.01
-84.59
-102.43
-123.68
-146.63
-167.52
-181.11
-182.24
-167.77
-137.92
-96.51
-49.74
-4.23
35.01
65.53
87.26
101.52
109.93
113.81
114.02
111.27
106.33
100.00
92.99
85.77
78.55
71.46
64.70
58.61
53.58
49.73
46.70
43.59
39.20
32.43
22.78
10.42
-3.72
-18.39
-32.50
-45.48
-57.54
-69.67
-83.39
-100.17
-120.48
-142.94
-163.89
-178.11
-180.31
-167.16
-138.72
-98.59
-52.76
-7.46
32.65
65.37
90.59
109.29
122.43
130.51
133.79
132.76
128.47
122.33
115.71
109.42
103.57
97.74
91.40
84.46
77.38
71.02
66.14
62.88
60.45
57.30
51.69
42.39
29.20
13.08
-4.22
-20.87
-35.63
-48.28
-59.68
-71.43
-85.38
-103.00
-124.55
-148.37
-170.73
-186.35
-189.95
-178.12
-150.70
-111.12
-65.20
-19.26
21.87
55.82
82.46
102.88
118.23
129.16
135.86
138.49
137.58
134.06
129.02
123.40
117.78
112.36
107.13
102.09
97.39
93.32
90.07
87.58
85.30
82.28
77.46
70.10
60.10
48.17
35.53
23.40
12.56
2.94
-6.29
-16.21
-27.65
-40.63
-54.45
-67.89
-79.87
-89.95
-98.49
-106.66
-116.14
-128.58
-144.95
-164.64
-185.03
-201.55
-208.80
-202.28
-180.16
-144.25
-99.46
-52.23
-8.36
28.51
57.28
78.75
94.36
105.32
112.21
115.38
115.27
112.73
108.93
104.98
101.73
99.49
98.13
97.26
96.51
95.65
94.60
93.38
91.94
90.09
87.47
83.71
78.48
71.62
63.21
53.51
42.98
32.19
21.71
12.06
3.48
-4.14
-11.25
-18.55
-26.75
-36.21
-46.84
-58.01
-68.84
-78.61
-87.00
-94.26
-101.07
-108.39
-117.26
-128.71
-143.34
-160.77
-179.04
-194.44
-202.11
-197.57
-178.47
-145.75
-103.60
-58.06
-15.03
21.47
49.95
70.99
86.07
96.51
103.07
106.09
105.89
103.17
98.97
94.48
90.58
87.75
85.89
84.56
83.29
81.81
80.15
78.53
77.19
76.03
74.66
72.42
68.69
63.12
55.74
46.94
37.28
27.31
17.48
8.10
-0.63
-8.67
-16.15
-23.43
-30.98
-39.23
-48.34
-58.11
-67.96
-77.20
-85.32
-92.24
-98.39
-104.64
-112.17
-122.19
-135.51
-151.90
-169.59
-185.10
-193.82
-191.41
-175.33
-145.95
-106.70
-62.96
-20.30
17.03
46.95
69.39
85.40
96.24
102.89
106.03
106.25
104.27
100.96
97.15
93.48
90.23
87.37
84.77
82.30
79.95
77.81
75.98
74.41
72.85
70.82
67.83
63.49
57.70
50.62
42.62
34.10
25.47
16.97
8.81
1.07
-6.24
-13.24
-20.25
-27.69
-36.00
-45.36
-55.62
-66.20
-76.35
-85.44
-93.21
-99.94
-106.40
-113.66
-122.92
-135.19
-150.84
-169.08
-187.42
-201.80
-207.39
-200.13
-178.26
-143.37
-99.93
-54.02
-11.26
24.63
52.38
72.62
86.86
96.44
102.18
104.54
103.99
101.38
97.80
94.37
91.81
90.28
89.38
88.41
86.85
84.55
81.84
79.30
77.44
76.27
75.23
73.29
69.37
62.78
53.53
42.33
30.41
19.04
9.15
0.97
-5.99
-12.74
-20.49
-30.08
-41.65
-54.52
-67.47
-79.19
-88.90
-96.66
-103.33
-110.30
-119.10
-131.01
-146.69
-165.67
-185.86
-203.45
-213.50
-211.25
-193.93
-162.04
-119.42
-72.16
-26.59
12.63
43.40
65.88
81.54
91.88
97.93
100.30
99.52
96.45
92.27
88.16
84.93
82.75
81.22
79.70
77.76
75.43
73.24
71.87
71.72
72.52
73.29
72.58
69.09
62.25
52.41
40.81
29.05
18.42
9.36
1.40
-6.65
-16.06
-27.53
-40.87
-55.06
-68.63
-80.35
-89.68
-97.02
-103.64
-111.35
-121.98
-136.79
-155.74
-176.92
-196.38
-208.83
-209.06
-193.71
-162.67
-119.34
-69.73
-20.42
23.21
58.21
84.01
101.63
112.53
117.93
118.75
115.86
110.43
103.94
97.83
93.14
90.24
88.86
88.41
88.37
88.49
88.76
89.08
89.09
88.01
84.94
79.24
70.88
60.56
49.34
38.22
27.63
17.27
6.39
-5.81
-19.65
-34.70
-49.97
-64.26
-76.73
-87.20
-96.36
-105.58
-116.68
-131.28
-150.09
-172.04
-193.95
-210.82
-217.07
-208.26
-182.77
-142.61
-92.93
-40.48
8.33
49.07
79.85
100.97
113.92
120.39
121.68
118.79
112.62
104.36
95.56
87.91
82.76
80.71
81.45
83.91
86.76
88.84
89.39
88.22
85.44
81.29
75.93
69.34
61.36
51.76
40.35
27.07
12.14
-3.94
-20.37
-36.26
-50.85
-63.74
-74.99
-85.14
-95.13
-106.21
-119.71
-136.60
-156.76
-178.29
-197.30
-208.51
-206.80
-189.00
-155.28
-109.46
-57.85
-7.34
36.58
70.97
95.47
111.42
120.68
124.80
124.80
121.39
115.44
108.22
101.31
96.19
93.73
93.87
95.62
97.58
98.49
97.64
95.05
91.25
86.82
82.04
76.70
70.09
61.37
49.89
35.55
18.92
1.15
-16.43
-32.70
-47.09
-59.66
-71.03
-82.16
-94.19
-108.31
-125.43
-145.63
-167.41
-187.41
-200.74
-202.22
-188.17
-157.95
-114.53
-63.70
-12.27
33.93
71.39
99.13
118.07
129.82
135.84
137.05
134.14
127.92
119.69
111.16
104.07
99.58
97.91
98.30
99.37
99.79
98.64
95.78
91.57
86.61
81.29
75.60
69.14
61.31
51.54
39.56
25.53
10.05
-6.00
-21.74
-36.46
-49.84
-61.92
-73.16
-84.34
-96.59
-111.24
-129.28
-150.64
-173.36
-193.34
-205.06
-203.16
-184.45
-149.39
-102.15
-49.42
1.74
45.84
80.11
104.33
119.88
128.54
131.80
130.66
126.01
118.99
111.06
103.82
98.59
95.93
95.49
96.20
96.71
95.95
93.49
89.59
84.92
80.12
75.39
70.28
63.88
55.17
43.45
28.78
12.01
-5.48
-22.21
-37.08
-49.70
-60.45
-70.26
-80.39
-92.17
-106.79
-124.89
-145.94
-167.63
-185.79
-195.11
-190.72
-170.09
-134.28
-87.97
-37.91
9.17
48.59
78.53
99.61
113.63
122.32
126.66
127.06
123.90
118.00
110.77
103.77
98.33
94.99
93.42
92.77
91.94
90.15
87.12
83.07
78.41
73.51
68.42
62.78
55.99
47.41
36.60
23.60
8.99
-6.23
-20.94
-34.23
-45.69
-55.55
-64.56
-73.77
-84.31
-97.21
-113.14
-131.96
-152.19
-170.68
-182.93
-184.20
-171.15
-143.33
-103.66
-57.66
-11.75
28.73
60.83
84.02
99.48
108.92
113.77
114.94
113.09
108.91
103.39
97.60
92.49
88.60
86.01
84.39
83.31
82.34
81.19
79.70
77.69
74.87
70.88
65.39
58.24
49.52
39.49
28.47
16.67
4.12
-9.17
-23.08
-37.29
-51.21
-64.17
-75.67
-85.61
-94.44
-103.18
-113.26
-126.10
-142.47
-161.61
-180.72
-195.20
-199.80
-190.42
-165.89
-128.58
-83.82
-38.09
3.06
36.42
61.36
79.03
91.12
98.87
102.84
103.21
100.32
95.01
88.56
82.32
77.36
74.14
72.52
71.90
71.57
70.93
69.64
67.56
64.65
60.83
55.98
49.92
42.44
33.41
22.78
10.64
-2.72
-16.81
-30.96
-44.49
-56.86
-67.84
-77.57
-86.60
-95.75
-106.13
-118.86
-134.61
-152.96
-171.75
-187.09
-194.15
-188.77
-169.09
-136.55
-95.56
-52.04
-11.41
22.92
49.92
70.47
86.00
97.64
105.73
110.13
110.73
107.95
102.79
96.65
90.84
86.21
82.84
80.17
77.37
73.80
69.33
64.38
59.56
55.27
51.37
47.08
41.28
32.98
21.76
8.01
-7.18
-22.50
-36.86
-49.69
-61.07
-71.52
-81.78
-92.67
-105.07
-119.82
-137.37
-156.99
-176.37
-191.54
-197.76
-191.22
-170.52
-137.54
-96.81
-53.99
-13.97
20.34
48.18
70.19
87.32
100.12
108.58
112.59
112.46
109.14
104.01
98.52
93.70
89.90
86.78
83.68
79.98
75.42
70.22
64.95
60.17
56.08
52.30
47.96
41.96
33.41
21.94
7.97
-7.49
-23.10
-37.76
-50.89
-62.61
-73.59
-84.82
-97.46
-112.51
-130.57
-151.21
-172.55
-191.07
-202.17
-201.51
-186.60
-157.84
-118.66
-74.40
-30.53
8.81
41.60
67.61
87.69
102.84
113.79
120.91
124.47
124.85
122.62
118.47
113.16
107.38
101.73
96.60
92.15
88.32
84.85
81.36
77.39
72.49
66.27
58.53
49.32
38.86
27.45
15.32
2.45
-11.31
-26.13
-41.99
-58.62
-75.47
-91.96
-107.69
-122.59
-137.04
-151.88
-168.35
-187.70
-210.57
-236.05
-261.26
-281.55
-291.69
-287.76
-268.67
-236.82
-197.35
-156.39
-119.02
-88.00
-63.65
-44.62
-29.05
-15.32
-2.31
10.84
24.93
40.87
59.43
80.86
104.75
129.97
154.97
178.22
198.55
215.33
228.38
237.72
243.26
244.70
241.51
233.25
219.92
202.27
181.80
160.45
140.05
121.67
105.32
90.04
74.35
57.12
38.07
17.99
-1.71
-19.65
-35.04
-48.07
-59.78
-71.73
-85.66
-102.99
-124.27
-148.59
-173.08
-193.16
-203.45
-199.50
-179.51
-145.19
-101.37
-54.38
-10.02
27.99
58.44
81.98
99.91
113.30
122.60
127.95
129.64
128.41
125.40
121.82
118.52
115.82
113.43
110.84
107.70
104.11
100.62
97.95
96.45
95.76
94.75
91.89
85.92
76.37
63.83
49.75
35.92
23.68
13.54
4.96
-3.33
-12.76
-24.26
-37.87
-52.72
-67.34
-80.37
-91.07
-99.66
-107.26
-115.50
-126.12
-140.43
-158.72
-179.72
-200.27
-215.68
-220.82
-211.78
-187.39
-149.89
-104.36
-56.97
-13.12
23.99
53.52
76.23
93.43
106.06
114.52
119.04
120.05
118.51
115.62
112.55
109.95
107.86
105.80
103.17
99.75
95.85
92.19
89.45
87.78
86.49
84.22
79.54
71.54
60.35
47.13
33.58
21.24
10.89
2.22
-5.87
-14.78
-25.46
-38.01
-51.65
-65.14
-77.31
-87.59
-96.22
-104.22
-113.07
-124.41
-139.53
-158.73
-180.69
-202.10
-218.08
-223.40
-214.18
-189.42
-151.54
-105.67
-57.92
-13.59
24.07
54.09
77.01
94.00
106.04
113.79
117.74
118.52
117.05
114.44
111.75
109.66
108.35
107.49
106.50
104.86
102.44
99.53
96.68
94.34
92.50
90.58
87.53
82.28
74.19
63.36
50.66
37.46
25.15
14.62
5.90
-1.79
-9.79
-19.35
-31.14
-44.91
-59.59
-73.79
-86.33
-96.74
-105.39
-113.35
-122.03
-132.94
-147.27
-165.54
-186.82
-208.39
-225.72
-233.46
-227.05
-204.48
-167.31
-120.35
-70.06
-22.51
18.23
50.71
75.49
93.98
107.44
116.63
121.92
123.77
123.01
120.76
118.10
115.82
114.16
112.88
111.54
109.77
107.47
104.90
102.53
100.76
99.63
98.65
96.88
93.18
86.66
77.09
65.00
51.57
38.20
25.98
15.37
6.02
-2.96
-12.62
-23.75
-36.50
-50.37
-64.40
-77.54
-89.09
-98.89
-107.46
-115.86
-125.51
-137.94
-154.34
-174.83
-197.82
-219.62
-234.95
-238.35
-226.00
-197.35
-155.51
-106.27
-56.24
-10.75
27.26
57.24
80.11
97.15
109.28
117.00
120.82
121.49
120.17
118.05
116.02
114.38
112.88
111.00
108.32
104.91
101.26
98.19
96.30
95.62
95.38
94.23
90.64
83.59
73.00
59.81
45.69
32.36
20.93
11.49
3.08
-5.80
-16.48
-29.49
-44.34
-59.70
-74.06
-86.36
-96.45
-105.10
-113.78
-124.25
-138.11
-156.19
-177.98
-201.09
-221.20
-232.88
-231.13
-213.12
-179.53
-134.46
-84.20
-35.20
7.75
42.36
68.58
87.63
100.97
109.69
114.56
116.26
115.73
114.05
112.25
111.02
110.48
110.41
110.50
110.71
111.31
112.57
114.51
116.45
117.20
115.38
110.06
101.13
89.41
76.25
63.03
50.61
39.08
27.89
16.12
3.02
-11.68
-27.59
-43.78
-59.17
-72.93
-84.86
-95.48
-106.06
-118.30
-133.75
-153.06
-175.11
-196.56
-212.29
-216.73
-205.82
-178.72
-138.44
-90.85
-42.78
0.23
35.14
61.56
80.61
93.74
101.90
105.50
104.84
100.68
94.32
87.37
81.31
77.05
74.82
74.25
74.59
74.99
74.78
73.57
71.27
68.03
64.03
59.35
53.80
46.95
38.24
27.26
14.01
-1.01
-16.81
-32.28
-46.52
-59.11
-70.23
-80.48
-90.75
-102.05
-115.43
-131.69
-150.83
-171.38
-190.08
-202.17
-202.76
-188.58
-159.47
-118.75
-72.22
-26.22
14.36
47.12
72.02
90.38
103.60
112.55
117.47
118.44
115.91
110.88
104.76
98.95
94.42
91.51
89.90
88.88
87.64
85.62
82.54
78.48
73.63
68.12
61.88
54.58
45.81
35.21
22.70
8.54
-6.68
-22.20
-37.30
-51.42
-64.30
-75.96
-86.76
-97.33
-108.70
-122.09
-138.57
-158.25
-179.55
-198.86
-211.11
-211.28
-196.26
-166.13
-124.40
-76.81
-29.44
13.06
48.39
76.29
97.67
113.59
124.79
131.71
134.78
134.69
132.33
128.56
124.06
119.32
114.65
110.37
106.78
104.06
102.12
100.48
98.32
94.78
89.15
81.24
71.34
60.07
48.11
35.92
23.57
10.84
-2.58
-16.86
-31.78
-46.87
-61.42
-74.86
-86.91
-97.73
-108.12
-119.39
-133.17
-150.71
-171.95
-194.80
-214.94
-226.78
-225.19
-207.44
-174.35
-130.12
-80.92
-32.80
9.95
45.47
73.88
96.26
113.70
126.83
135.92
141.26
143.33
142.90
140.80
137.71
134.00
129.75
125.01
119.95
115.04
110.88
107.91
106.00
104.28
101.34
95.77
86.74
74.46
60.13
45.39
31.67
19.50
8.46
-2.61
-14.86
-28.85
-44.28
-60.08
-74.95
-87.89
-98.65
-107.86
-116.89
-127.56
-141.58
-159.89
-181.77
-204.45
-223.17
-232.37
-227.33
-205.96
-169.71
-123.14
-72.46
-23.50
19.79
55.90
85.14
108.63
127.32
141.57
151.36
156.71
158.07
156.40
152.93
148.83
144.88
141.35
138.07
134.78
131.30
127.70
124.30
121.30
118.65
115.79
111.85
105.87
97.25
85.99
72.75
58.65
44.90
32.42
21.55
12.02
3.05
-6.32
-16.90
-29.04
-42.46
-56.43
-69.94
-82.17
-92.69
-101.68
-109.87
-118.41
-128.68
-141.93
-158.93
-179.16
-200.34
-218.42
-228.34
-225.50
-207.47
-174.98
-131.82
-83.62
-36.02
6.78
42.74
71.67
94.40
111.87
124.75
133.39
138.11
139.50
138.34
135.60
132.13
128.52
125.05
121.77
118.75
116.11
114.04
112.64
111.73
110.78
108.98
105.58
100.17
92.78
83.87
74.05
63.83
53.46
42.94
32.23
21.43
10.81
0.76
-8.54
-17.24
-25.83
-34.90
-44.91
-55.89
-67.42
-78.83
-89.45
-98.89
-107.16
-114.72
-122.52
-131.76
-143.71
-159.02
-177.01
-195.11
-209.04
-213.86
-205.64
-182.97
-147.72
-104.47
-58.96
-16.29
20.38
50.08
73.31
91.08
104.15
112.91
117.67
118.97
117.77
115.21
112.24
109.42
106.86
104.41
101.98
99.67
97.77
96.53
95.94
95.60
94.81
92.78
88.95
83.19
75.84
67.53
58.99
50.75
42.96
35.42
27.75
19.64
11.07
2.32
-6.12
-13.88
-20.96
-27.76
-34.95
-43.13
-52.49
-62.76
-73.26
-83.30
-92.40
-100.57
-108.26
-116.33
-125.87
-137.93
-152.94
-170.10
-186.88
-199.29
-202.79
-193.83
-171.24
-136.93
-95.28
-51.71
-11.04
23.67
51.33
72.25
87.31
97.36
103.07
105.11
104.34
101.82
98.68
95.74
93.38
91.52
89.81
87.95
85.91
83.98
82.59
82.05
82.23
82.49
81.84
79.36
74.55
67.61
59.34
50.81
42.94
36.08
29.98
23.97
17.31
9.63
1.07
-7.77
-16.14
-23.55
-29.97
-35.83
-41.89
-48.83
-57.03
-66.33
-76.17
-85.76
-94.43
-101.94
-108.62
-115.29
-123.17
-133.51
-147.05
-163.45
-180.70
-195.16
-202.34
-198.23
-180.78
-150.80
-111.92
-69.33
-28.22
7.66
36.62
58.63
74.54
85.31
91.64
94.08
93.30
90.24
86.04
81.78
78.19
75.64
74.09
73.33
73.17
73.55
74.50
75.93
77.54
78.72
78.67
76.78
72.78
66.99
60.05
52.71
45.44
38.27
30.95
23.14
14.73
5.93
-2.85
-11.20
-19.01
-26.54
-34.31
-42.91
-52.65
-63.46
-74.84
-86.09
-96.59
-105.96
-114.34
-122.32
-131.01
-141.77
-155.70
-173.00
-192.12
-209.67
-220.85
-220.93
-206.87
-178.63
-139.30
-94.18
-48.94
-8.08
25.92
52.49
72.21
86.03
94.78
99.27
100.35
99.08
96.62
93.94
91.66
90.02
88.98
88.43
88.34
88.75
89.69
91.03
92.43
93.42
93.41
91.90
88.57
83.34
76.35
67.88
58.30
47.95
37.19
26.34
15.75
5.69
-3.68
-12.47
-21.14
-30.30
-40.59
-52.19
-64.79
-77.68
-89.99
-101.13
-111.01
-120.14
-129.43
-140.15
-153.54
-170.54
-191.00
-213.11
-233.12
-245.89
-246.30
-231.02
-199.98
-156.50
-106.30
-55.68
-9.67
28.89
59.32
82.31
99.03
110.51
117.59
121.03
121.70
120.64
118.84
117.07
115.80
115.12
114.84
114.74
114.68
114.67
114.82
115.14
115.39
115.06
113.45
109.94
104.16
96.11
86.17
74.94
63.06
51.11
39.49
28.44
17.97
7.90
-2.19
-12.84
-24.48
-37.37
-51.33
-65.88
-80.34
-94.08
-106.78
-118.52
-129.87
-141.84
-155.76
-172.90
-193.77
-217.31
-240.45
-258.38
-265.74
-258.37
-234.68
-196.35
-147.63
-94.12
-41.19
7.05
48.12
81.07
106.01
123.79
135.66
143.01
147.13
149.03
149.41
148.76
147.55
146.20
145.11
144.54
144.56
145.03
145.65
146.09
145.90
144.68
142.02
137.64
131.40
123.34
113.71
102.84
91.14
78.93
66.47
53.89
41.30
28.83
16.61
4.73
-6.92
-18.64
-30.87
-44.00
-58.10
-72.88
-87.65
-101.61
-114.14
-125.19
-135.43
-146.21
-159.29
-176.21
-197.37
-221.22
-243.99
-260.36
-264.89
-253.75
-225.99
-183.88
-132.14
-76.48
-22.17
26.81
68.09
100.63
124.42
140.19
149.24
153.25
153.99
152.99
151.31
149.53
147.85
146.25
144.72
143.33
142.30
141.76
141.75
141.90
141.59
140.01
136.47
130.67
122.78
113.39
103.23
92.91
82.69
72.42
61.68
50.14
37.79
25.06
12.72
1.42
-8.58
-17.67
-26.72
-36.67
-48.14
-61.14
-75.09
-89.10
-102.33
-114.26
-124.94
-135.06
-145.88
-158.99
-175.75
-196.33
-218.92
-239.46
-252.32
-251.92
-234.64
-200.20
-152.00
-96.08
-39.31
12.43
55.46
88.53
112.19
127.96
137.52
142.28
143.38
141.81
138.55
134.57
130.80
127.86
126.00
125.09
124.83
124.91
125.09
125.18
124.93
123.96
121.73
117.80
111.95
104.33
95.39
85.66
75.54
65.22
54.63
43.75
32.71
21.89
11.73
2.44
-6.23
-15.03
-24.84
-36.30
-49.40
-63.47
-77.41
-90.21
-101.26
-110.66
-119.15
-127.90
-138.38
-151.95
-169.40
-190.12
-211.54
-229.07
-237.02
-230.37
-206.68
-167.30
-117.08
-62.85
-11.29
32.94
67.80
93.51
111.38
122.89
129.18
131.17
129.88
126.54
122.55
119.10
116.89
116.00
115.97
116.16
116.03
115.37
114.34
113.24
112.25
111.23
109.70
106.96
102.38
95.62
86.69
76.00
64.16
51.88
39.81
28.41
17.88
8.06
-1.50
-11.45
-22.37
-34.56
-47.82
-61.48
-74.56
-86.19
-95.90
-103.90
-111.05
-118.75
-128.58
-141.94
-159.34
-179.79
-200.35
-216.38
-222.56
-214.60
-190.85
-153.13
-106.29
-56.71
-10.32
28.91
59.49
81.84
97.28
107.11
112.28
113.46
111.49
107.44
102.63
98.21
94.86
92.64
91.03
89.36
87.23
84.72
82.40
80.96
80.69
81.15
81.17
79.34
74.49
66.29
55.44
43.34
31.53
21.05
12.10
3.96
-4.48
-14.24
-25.72
-38.57
-51.79
-64.19
-74.87
-83.61
-90.95
-98.10
-106.67
-118.20
-133.60
-152.48
-172.68
-190.28
-200.37
-198.54
-182.42
-152.75
-113.26
-69.54
-27.29
9.25
38.03
59.00
73.21
81.95
86.25
86.81
84.29
79.54
73.63
67.69
62.67
59.13
57.18
56.56
56.77
57.27
57.53
57.10
55.57
52.56
47.79
41.23
33.23
24.53
15.99
8.24
1.40
-4.95
-11.64
-19.32
-28.22
-38.01
-47.92
-57.13
-65.21
-72.37
-79.50
-87.96
-99.11
-113.49
-130.07
-145.94
-156.70
-157.79
-146.12
-121.40
-86.38
-46.01
-5.73
30.13
59.26
81.21
96.68
106.51
111.29
111.38
107.28
99.98
90.98
82.04
74.57
69.24
65.80
63.32
60.68
57.12
52.60
47.70
43.22
39.65
36.72
33.38
28.16
19.82
7.90
-6.99
-23.38
-39.51
-53.89
-65.90
-75.86
-84.85
-94.35
-105.88
-120.63
-138.97
-160.00
-181.14
-198.30
-206.68
-202.30
-183.46
-151.53
-110.69
-66.51
-24.19
12.81
43.24
67.48
86.59
101.37
112.08
118.64
121.09
119.98
116.42
111.76
107.21
103.41
100.32
97.43
94.10
90.00
85.26
80.42
76.04
72.33
68.78
64.27
57.39
47.07
33.03
16.05
-2.29
-20.15
-36.08
-49.54
-61.01
-71.77
-83.46
-97.65
-115.41
-136.93
-161.00
-184.77
-203.93
-213.58
-209.68
-190.53
-157.53
-114.92
-68.40
-23.45
16.17
48.92
75.09
95.87
112.46
125.52
135.25
141.66
144.87
145.30
143.54
140.20
135.78
130.62
125.07
119.56
114.63
110.76
108.05
106.00
103.56
99.46
92.75
83.15
71.22
58.06
44.75
31.90
19.49
6.91
-6.58
-21.35
-37.24
-53.50
-69.16
-83.43
-96.02
-107.33
-118.43
-130.92
-146.49
-166.15
-189.40
-213.53
-233.78
-244.40
-240.51
-219.83
-183.74
-136.93
-85.78
-36.39
7.07
42.95
71.65
94.53
112.85
127.38
138.54
146.86
153.31
159.11
165.37
172.56
180.32
187.61
193.31
196.69
197.60
196.34
193.24
188.34
181.32
171.75
159.37
144.29
127.01
108.21
88.62
68.96
49.98
32.35
16.63
2.98
-8.97
-20.18
-31.80
-44.74
-59.19
-74.53
-89.60
-103.20
-114.66
-124.11
-132.37
-140.73
-150.61
-163.25
-179.38
-198.59
-218.78
-236.15
-245.74
-242.88
-224.91
-192.30
-148.72
-99.90
-51.69
-8.45
27.74
56.87
79.99
98.26
112.41
122.76
129.54
133.22
134.55
134.37
133.42
132.08
130.37
128.23
125.71
123.12
120.92
119.50
118.83
118.41
117.30
114.52
109.47
102.11
93.04
83.20
73.45
64.30
55.66
47.05
37.90
27.85
17.03
6.00
-4.49
-13.91
-22.28
-30.18
-38.54
-48.16
-59.30
-71.59
-84.14
-95.98
-106.51
-115.75
-124.35
-133.52
-144.63
-158.85
-176.55
-196.60
-216.11
-230.61
-235.23
-226.17
-202.26
-165.51
-120.61
-73.38
-29.05
9.08
39.90
63.95
82.47
96.60
107.04
114.23
118.56
120.58
121.04
120.62
119.81
118.74
117.31
115.39
113.11
110.83
109.08
108.17
107.98
107.87
106.89
104.13
99.16
92.12
83.69
74.75
65.99
57.65
49.51
41.08
31.96
22.07
11.77
1.69
-7.61
-15.98
-23.74
-31.63
-40.41
-50.49
-61.76
-73.61
-85.21
-95.87
-105.25
-113.55
-121.45
-130.07
-140.68
-154.33
-171.19
-189.85
-207.09
-218.39
-219.19
-206.50
-180.15
-143.03
-100.13
-56.93
-17.81
14.84
40.61
60.26
74.99
85.78
93.35
98.26
101.11
102.50
102.98
102.85
102.14
100.82
98.90
96.65
94.55
93.14
92.72
93.15
93.79
93.74
92.17
88.58
83.07
76.16
68.52
60.67
52.78
44.68
36.10
26.93
17.35
7.81
-1.26
-9.67
-17.67
-25.87
-34.90
-45.13
-56.43
-68.18
-79.57
-89.85
-98.72
-106.41
-113.72
-121.83
-132.12
-145.60
-162.36
-180.97
-198.27
-209.86
-211.28
-199.58
-174.45
-138.63
-96.97
-54.92
-16.93
14.51
38.86
56.92
69.90
78.86
84.51
87.45
88.31
87.88
86.94
86.09
85.60
85.41
85.30
85.00
84.35
83.39
82.27
81.21
80.27
79.37
78.16
76.07
72.52
67.01
59.37
49.85
39.17
28.29
18.13
9.16
1.27
-6.23
-14.31
-23.74
-34.79
-47.02
-59.48
-71.11
-81.21
-89.66
-97.02
-104.29
-112.72
-123.53
-137.60
-155.01
-174.51
-193.23
-206.92
-210.97
-201.97
-179.03
-144.32
-102.46
-59.01
-18.75
15.37
42.47
63.02
78.00
88.21
94.22
96.51
95.84
93.29
90.10
87.36
85.71
85.21
85.45
85.77
85.67
84.97
83.92
82.92
82.33
82.03
81.36
79.29
74.84
67.49
57.55
46.03
34.33
23.66
14.60
6.83
-0.63
-8.96
-19.03
-30.97
-44.16
-57.50
-69.90
-80.74
-90.03
-98.46
-107.16
-117.44
-130.52
-147.04
-166.55
-187.03
-204.78
-215.09
-213.57
-197.67
-167.81
-127.39
-81.77
-36.55
3.96
37.40
63.30
82.25
95.16
102.82
106.01
105.66
102.99
99.46
96.31
94.36
93.70
93.87
94.15
93.95
93.14
92.08
91.27
91.04
91.10
90.52
88.13
82.90
74.59
63.84
51.96
40.37
30.07
21.17
12.93
4.14
-6.29
-18.84
-33.10
-47.98
-62.11
-74.46
-84.72
-93.49
-102.13
-112.37
-125.77
-143.15
-163.88
-185.50
-203.82
-213.80
-211.02
-193.22
-161.22
-118.88
-71.82
-25.79
14.89
47.96
73.07
91.01
102.91
109.76
112.39
111.62
108.37
103.69
98.64
94.19
90.97
89.25
88.85
89.25
89.74
89.63
88.39
85.77
81.77
76.46
69.95
62.28
53.35
43.11
31.51
18.70
4.99
-9.19
-23.32
-36.92
-49.62
-61.23
-71.88
-81.98
-92.32
-104.00
-118.27
-135.85
-156.24
-177.05
-194.09
-202.22
-197.03
-176.50
-141.93
-97.81
-50.24
-5.14
33.37
63.59
85.84
101.46
111.78
117.70
119.66
118.09
113.78
107.91
101.91
96.96
93.70
91.99
91.12
90.19
88.47
85.70
82.01
77.75
73.20
68.32
62.71
55.68
46.55
34.92
20.93
5.28
-10.95
-26.64
-40.94
-53.60
-64.95
-75.78
-87.21
-100.51
-116.79
-136.65
-159.38
-182.59
-202.08
-212.73
-210.05
-191.79
-158.92
-115.49
-67.32
-20.22
21.55
55.96
82.91
103.40
118.59
129.33
136.07
139.09
138.79
135.86
131.20
125.78
120.44
115.71
111.78
108.62
105.94
103.38
100.52
96.91
92.20
86.11
78.59
69.68
59.46
47.93
35.02
20.70
5.19
-10.97
-27.05
-42.33
-56.34
-69.09
-81.03
-92.94
-105.72
-120.38
-137.76
-158.10
-180.43
-202.02
-218.51
-224.82
-216.84
-193.04
-155.28
-108.40
-58.50
-11.08
30.35
64.49
91.68
112.82
128.68
139.71
146.29
149.06
148.90
146.77
143.42
139.35
134.80
129.97
125.21
120.98
117.68
115.43
113.87
112.16
109.16
103.83
95.60
84.64
71.76
58.13
44.77
32.11
19.89
7.35
-6.31
-21.43
-37.68
-54.05
-69.37
-82.81
-94.27
-104.58
-115.31
-128.37
-145.21
-166.00
-188.93
-210.04
-224.06
-225.81
-212.05
-182.72
-141.12
-92.88
-44.03
0.65
38.71
69.82
94.98
115.45
132.00
144.80
153.68
158.59
159.90
158.41
155.14
151.07
146.91
142.96
139.28
135.83
132.64
129.78
127.28
124.95
122.31
118.69
113.36
105.84
96.04
84.32
71.36
58.05
45.22
33.49
23.07
13.68
4.63
-5.00
-15.98
-28.62
-42.59
-57.02
-70.88
-83.35
-94.11
-103.47
-112.23
-121.52
-132.61
-146.66
-164.21
-184.52
-205.12
-221.82
-229.64
-224.40
-204.27
-170.63
-127.74
-81.36
-36.86
2.14
34.26
59.91
80.25
96.36
108.83
117.81
123.44
126.12
126.52
125.53
123.92
122.17
120.47
118.84
117.29
115.98
115.06
114.56
114.18
113.26
111.00
106.81
100.55
92.57
83.55
74.15
64.79
55.52
46.17
36.58
26.75
16.94
7.49
-1.36
-9.66
-17.79
-26.28
-35.60
-45.90
-56.94
-68.18
-79.00
-88.96
-97.98
-106.37
-114.88
-124.54
-136.38
-151.03
-167.94
-184.99
-198.49
-204.04
-197.97
-178.78
-147.87
-109.16
-67.80
-28.47
5.76
33.72
55.71
72.62
85.22
94.04
99.48
102.13
102.83
102.51
101.89
101.28
100.55
99.39
97.62
95.39
93.22
91.72
91.24
91.58
92.01
91.49
89.20
84.77
78.51
71.18
63.63
56.45
49.76
43.25
36.42
28.92
20.75
12.30
4.14
-3.26
-9.81
-15.87
-22.07
-29.10
-37.32
-46.67
-56.63
-66.52
-75.65
-83.74
-90.95
-97.89
-105.56
-115.09
-127.35
-142.39
-158.94
-174.25
-184.50
-185.89
-175.94
-154.48
-123.89
-88.32
-52.35
-19.58
8.01
30.07
47.16
60.06
69.35
75.42
78.70
79.85
79.71
79.06
78.44
78.02
77.74
77.45
77.14
76.89
76.78
76.80
76.78
76.38
75.26
73.10
69.74
65.20
59.63
53.25
46.34
39.09
31.58
23.84
15.93
8.02
0.35
-6.82
-13.42
-19.60
-25.76
-32.36
-39.68
-47.71
-56.13
-64.50
-72.41
-79.77
-86.80
-94.16
-102.76
-113.50
-126.84
-142.24
-157.77
-170.26
-176.00
-171.93
-156.75
-131.56
-99.53
-64.92
-31.77
-2.87
20.62
38.79
52.39
62.17
68.64
72.18
73.22
72.41
70.57
68.48
66.74
65.59
65.02
64.85
64.90
65.04
65.21
65.37
65.41
65.14
64.28
62.51
59.58
55.33
49.71
42.86
35.05
26.67
18.20
10.08
2.61
-4.13
-10.43
-16.76
-23.68
-31.56
-40.44
-49.91
-59.38
-68.28
-76.30
-83.60
-90.66
-98.34
-107.60
-119.34
-133.93
-150.73
-167.67
-181.36
-187.77
-183.49
-167.02
-139.43
-104.22
-66.13
-29.77
1.64
26.72
45.61
59.29
68.82
74.98
78.27
79.09
77.98
75.64
72.84
70.23
68.21
66.87
66.01
65.35
64.65
63.83
62.98
62.19
61.46
60.60
59.14
56.54
52.28
46.07
38.03
28.70
18.96
9.67
1.37
-5.98
-12.96
-20.45
-29.27
-39.77
-51.73
-64.44
-77.04
-88.76
-99.13
-107.98
-115.47
-122.13
-128.92
-137.07
-147.55
-160.37
-173.87
-184.70
-188.57
-181.73
-162.51
-132.17
-94.57
-54.85
-17.70
13.89
39.04
58.36
72.99
83.85
91.35
95.61
96.90
95.89
93.56
90.96
88.81
87.26
86.02
84.58
82.60
80.14
77.72
75.94
75.17
75.20
75.11
73.63
69.64
62.63
53.06
42.18
31.46
22.01
14.04
6.86
-0.78
-10.10
-21.70
-35.29
-49.85
-64.11
-76.92
-87.79
-96.96
-105.38
-114.47
-125.87
-140.91
-160.01
-182.01
-203.80
-220.74
-227.73
-220.79
-198.59
-163.05
-118.84
-71.89
-27.64
10.37
40.83
64.23
81.84
94.88
104.13
110.05
113.12
114.09
113.94
113.54
113.38
113.47
113.43
112.86
111.67
110.21
109.01
108.46
108.40
108.01
106.08
101.48
93.74
83.30
71.38
59.43
48.49
38.76
29.54
19.64
8.07
-5.45
-20.38
-35.54
-49.69
-62.05
-72.67
-82.41
-92.74
-105.40
-121.75
-142.14
-165.19
-187.58
-204.42
-210.46
-201.82
-177.39
-139.48
-93.15
-44.60
0.69
39.18
69.63
92.48
108.95
120.21
127.08
130.24
130.43
128.64
125.91
123.15
120.81
118.88
117.14
115.40
113.70
112.27
111.23
110.35
108.89
105.87
100.46
92.44
82.31
71.07
59.71
48.77
38.14
27.21
15.28
2.01
-12.38
-27.13
-41.32
-54.16
-65.40
-75.45
-85.27
-96.29
-109.96
-127.23
-147.74
-169.20
-187.47
-197.29
-193.99
-175.15
-141.71
-97.84
-49.63
-3.20
36.96
68.80
92.38
108.93
119.89
126.33
128.94
128.30
125.19
120.65
115.77
111.47
108.22
106.02
104.54
103.38
102.26
101.03
99.57
97.59
94.61
90.05
83.53
75.03
64.94
53.90
42.47
30.88
19.03
6.62
-6.56
-20.36
-34.26
-47.56
-59.57
-70.00
-79.14
-87.87
-97.60
-109.92
-125.92
-145.35
-166.09
-184.02
-193.99
-191.37
-173.83
-142.32
-101.02
-55.88
-12.71
24.38
53.73
75.66
91.45
102.30
108.85
111.34
110.08
105.90
100.20
94.58
90.36
88.11
87.54
87.73
87.58
86.29
83.60
79.77
75.30
70.65
65.89
60.70
54.36
46.10
35.39
22.24
7.27
-8.35
-23.31
-36.62
-47.83
-57.28
-65.80
-74.58
-84.83
-97.63
-113.53
-132.11
-151.49
-168.25
-178.00
-176.62
-161.84
-134.21
-97.20
-56.07
-16.19
18.54
46.40
67.57
83.19
94.34
101.55
104.87
104.35
100.54
94.67
88.37
83.13
79.77
78.17
77.47
76.54
74.52
71.19
66.94
62.40
57.97
53.52
48.32
41.43
32.10
20.16
6.17
-8.76
-23.41
-36.84
-48.66
-59.08
-68.70
-78.34
-88.92
-101.36
-116.36
-133.99
-153.08
-170.93
-183.61
-186.90
-177.75
-155.57
-122.56
-83.18
-42.63
-5.29
26.26
51.40
70.85
85.74
96.93
104.82
109.52
111.21
110.35
107.75
104.32
100.91
98.07
95.95
94.42
93.13
91.64
89.54
86.53
82.38
76.98
70.33
62.50
53.59
43.66
32.74
20.86
8.12
-5.24
-18.85
-32.22
-44.91
-56.67
-67.54
-77.83
-88.20
-99.54
-112.85
-128.86
-147.39
-166.87
-184.07
-194.77
-194.87
-181.93
-156.27
-120.98
-80.90
-41.02
-4.97
25.66
51.01
72.00
89.42
103.40
113.64
119.92
122.56
122.46
120.80
118.55
116.12
113.44
110.25
106.54
102.67
99.33
97.08
95.97
95.35
94.07
90.89
84.97
76.21
65.25
53.25
41.48
30.93
21.90
13.95
6.08
-2.85
-13.62
-26.24
-39.94
-53.48
-65.68
-75.95
-84.54
-92.48
-101.23
-112.24
-126.48
-143.93
-163.20
-181.49
-194.78
-198.99
-191.08
-170.31
-138.63
-100.18
-59.98
-22.34
10.15
36.86
58.46
76.02
90.25
101.33
109.16
113.83
115.79
115.87
114.96
113.71
112.41
111.05
109.56
107.98
106.53
105.43
104.71
104.05
102.82
100.34
96.16
90.26
83.07
75.24
67.34
59.60
51.90
43.87
35.25
26.06
16.59
7.29
-1.55
-9.91
-18.12
-26.60
-35.73
-45.56
-55.88
-66.21
-76.07
-85.12
-93.30
-100.90
-108.61
-117.47
-128.63
-142.78
-159.48
-176.68
-190.77
-197.46
-193.14
-176.29
-148.15
-112.36
-73.73
-36.70
-4.24
22.49
43.71
60.28
73.05
82.62
89.40
93.78
96.16
97.03
96.83
95.94
94.66
93.18
91.69
90.34
89.30
88.68
88.55
88.75
88.86
88.22
86.18
82.29
76.60
69.61
62.11
54.77
47.84
41.06
33.90
25.91
17.08
7.91
-0.86
-8.58
-15.14
-20.96
-26.89
-33.74
-41.92
-51.28
-61.11
-70.54
-78.90
-85.98
-92.19
-98.42
-105.86
-115.62
-128.34
-143.63
-159.74
-173.57
-181.25
-179.30
-165.86
-141.44
-108.97
-72.76
-37.23
-5.62
20.45
40.82
56.14
67.19
74.61
78.89
80.61
80.47
79.33
77.95
76.83
76.17
75.94
76.02
76.32
76.78
77.32
77.80
77.96
77.49
76.14
73.76
70.35
65.92
60.57
54.32
47.25
39.53
31.41
23.23
15.35
8.04
1.34
-4.95
-11.28
-18.16
-25.97
-34.75
-44.14
-53.54
-62.31
-70.14
-77.07
-83.58
-90.43
-98.52
-108.70
-121.41
-136.25
-151.54
-164.31
-170.83
-167.80
-153.54
-128.81
-96.63
-61.39
-27.35
2.39
26.42
44.75
58.10
67.32
73.07
75.89
76.31
75.03
72.86
70.56
68.68
67.46
66.83
66.58
66.49
66.49
66.64
67.04
67.62
68.08
67.94
66.72
64.09
60.05
54.75
48.48
41.49
33.91
25.96
17.85
9.93
2.51
-4.25
-10.53
-16.80
-23.64
-31.52
-40.55
-50.41
-60.51
-70.19
-79.05
-87.05
-94.57
-102.31
-111.25
-122.42
-136.49
-153.23
-170.92
-186.37
-195.39
-194.17
-180.60
-155.23
-121.21
-83.21
-45.97
-12.90
14.37
35.77
52.02
63.95
72.12
76.90
78.77
78.45
76.88
75.05
73.75
73.40
74.03
75.35
77.02
78.69
80.18
81.40
82.27
82.63
82.24
80.70
77.68
72.95
66.49
58.50
49.39
39.70
30.03
20.89
12.49
4.78
-2.64
-10.38
-19.02
-28.85
-39.81
-51.40
-62.94
-73.78
-83.57
-92.39
-100.72
-109.45
-119.68
-132.58
-148.85
-168.13
-188.43
-206.06
-216.34
-215.05
-199.87
-171.48
-133.43
-90.88
-49.04
-11.70
19.37
44.01
62.95
77.00
86.76
92.65
95.31
95.65
94.88
94.13
94.18
95.30
97.20
99.27
100.90
101.71
101.71
101.19
100.51
99.82
98.88
97.13
93.83
88.38
80.52
70.48
58.98
47.03
35.66
25.50
16.63
8.48
0.03
-9.70
-21.26
-34.48
-48.52
-62.24
-74.68
-85.48
-94.91
-103.86
-113.59
-125.47
-140.65
-159.52
-181.12
-202.72
-220.01
-228.01
-222.69
-202.38
-168.59
-125.60
-79.06
-34.26
5.11
37.38
62.49
81.18
94.36
102.82
107.33
108.85
108.57
107.71
107.27
107.71
108.83
110.02
110.60
110.19
108.98
107.55
106.54
106.17
105.96
104.80
101.37
94.77
84.92
72.69
59.54
46.99
35.89
26.21
17.04
7.21
-4.23
-17.42
-31.76
-46.11
-59.38
-70.99
-81.08
-90.55
-100.78
-113.35
-129.56
-149.80
-172.84
-195.54
-213.10
-220.23
-212.85
-189.67
-152.79
-107.17
-58.89
-13.42
25.80
57.50
81.96
100.07
112.62
120.18
123.41
123.35
121.41
119.08
117.50
117.08
117.54
118.14
118.24
117.58
116.43
115.36
114.79
114.54
113.73
111.05
105.31
96.08
84.00
70.52
57.36
45.68
35.62
26.33
16.46
4.90
-8.69
-23.66
-38.80
-52.81
-64.92
-75.17
-84.41
-94.06
-105.82
-121.08
-140.42
-162.84
-185.39
-203.40
-211.50
-205.38
-183.40
-147.39
-102.21
-54.13
-8.86
29.89
60.81
84.38
101.80
114.11
121.96
125.79
126.24
124.33
121.24
118.10
115.62
113.95
112.84
111.96
111.14
110.47
110.20
110.38
110.62
110.06
107.54
102.11
93.46
82.15
69.39
56.65
44.96
34.54
24.74
14.41
2.50
-11.29
-26.32
-41.27
-54.70
-65.76
-74.59
-82.31
-90.72
-101.72
-116.67
-135.72
-157.26
-177.81
-192.52
-196.44
-186.14
-161.04
-123.92
-80.02
-35.37
5.04
38.36
63.98
82.70
95.70
103.89
107.82
108.06
105.53
101.50
97.31
93.96
91.85
90.75
90.14
89.56
88.85
88.14
87.67
87.40
86.90
85.37
81.86
75.74
66.96
56.14
44.42
33.00
22.70
13.57
4.96
-4.23
-14.91
-27.30
-40.84
-54.33
-66.45
-76.43
-84.32
-91.16
-98.69
-108.87
-123.14
-141.66
-162.59
-182.14
-195.26
-197.06
-184.63
-158.14
-120.95
-78.45
-36.35
1.07
31.74
55.56
73.55
86.85
96.14
101.72
103.90
103.33
101.09
98.38
96.20
95.00
94.61
94.47
94.03
93.06
91.72
90.54
89.93
89.86
89.70
88.35
84.63
77.86
68.15
56.46
44.24
32.90
23.19
14.97
7.34
-0.97
-10.93
-22.82
-36.12
-49.74
-62.47
-73.55
-82.88
-91.10
-99.38
-109.10
-121.54
-137.36
-156.12
-175.83
-192.97
-203.09
-202.18
-187.96
-160.94
-124.40
-83.32
-42.76
-6.48
23.74
47.94
67.08
82.19
93.85
102.27
107.55
110.09
110.59
109.96
109.01
108.13
107.27
106.11
104.34
101.99
99.41
97.15
95.50
94.24
92.54
89.26
83.43
74.73
63.72
51.63
39.91
29.63
21.07
13.64
6.23
-2.33
-12.67
-24.72
-37.67
-50.40
-61.91
-71.72
-80.03
-87.71
-96.08
-106.58
-120.30
-137.48
-156.92
-175.85
-190.17
-195.55
-188.83
-169.15
-138.44
-100.78
-61.09
-23.61
9.02
35.93
57.49
74.55
87.88
97.97
105.10
109.56
111.73
112.12
111.28
109.75
108.01
106.36
104.95
103.77
102.73
101.74
100.73
99.58
98.11
95.98
92.81
88.21
81.99
74.16
64.98
54.93
44.54
34.34
24.71
15.84
7.66
-0.16
-8.09
-16.63
-26.04
-36.23
-46.81
-57.17
-66.77
-75.35
-83.06
-90.48
-98.49
-108.19
-120.55
-136.00
-153.87
-171.99
-186.79
-194.13
-190.58
-174.72
-147.76
-113.22
-75.78
-39.77
-8.12
17.99
38.81
55.27
68.30
78.50
86.14
91.33
94.30
95.44
95.27
94.34
93.08
91.69
90.24
88.80
87.53
86.61
86.20
86.18
86.10
85.30
83.15
79.27
73.67
66.66
58.74
50.29
41.63
32.95
24.41
16.21
8.49
1.26
-5.76
-13.03
-21.08
-30.24
-40.40
-51.05
-61.46
-70.94
-79.21
-86.47
-93.40
-101.00
-110.36
-122.26
-136.77
-152.72
-167.55
-177.67
-179.41
-170.29
-149.99
-120.62
-86.03
-50.63
-18.04
9.61
31.81
49.00
62.00
71.51
77.99
81.80
83.47
83.64
83.07
82.37
81.90
81.72
81.68
81.61
81.52
81.49
81.67
82.06
82.43
82.32
81.22
78.76
74.79
69.45
63.03
55.85
48.20
40.28
32.25
24.30
16.64
9.44
2.71
-3.76
-10.39
-17.70
-25.96
-35.15
-44.88
-54.58
-63.74
-72.11
-79.83
-87.43
-95.68
-105.47
-117.58
-132.24
-148.71
-164.93
-177.66
-183.21
-178.52
-162.40
-136.03
-102.71
-66.84
-32.56
-2.77
21.35
39.97
54.00
64.41
71.90
76.84
79.58
80.52
80.24
79.34
78.35
77.58
77.12
76.94
76.99
77.32
77.96
78.91
79.94
80.56
80.15
78.15
74.32
68.87
62.34
55.49
48.89
42.77
36.89
30.81
24.09
16.61
8.67
0.77
-6.63
-13.39
-19.88
-26.71
-34.47
-43.40
-53.26
-63.40
-73.14
-81.99
-89.92
-97.35
-105.05
-113.98
-125.17
-139.21
-155.80
-173.22
-188.26
-196.84
-195.24
-181.50
-156.25
-122.62
-85.13
-48.24
-15.16
12.57
34.76
51.92
64.65
73.48
78.96
81.78
82.85
83.04
83.03
83.16
83.44
83.76
84.01
84.27
84.70
85.49
86.59
87.67
88.14
87.37
85.00
81.01
75.71
69.52
62.78
55.55
47.73
39.22
30.09
20.60
11.17
2.23
-6.03
-13.67
-21.01
-28.53
-36.66
-45.62
-55.34
-65.46
-75.47
-84.94
-93.67
-101.92
-110.38
-120.14
-132.41
-148.00
-166.61
-186.37
-203.77
-214.37
-214.07
-200.57
-174.23
-138.07
-96.83
-55.49
-17.97
13.54
38.54
57.54
71.45
81.13
87.19
90.24
90.98
90.23
88.89
87.69
87.11
87.19
87.68
88.18
88.43
88.38
88.22
88.20
88.40
88.56
88.02
85.94
81.60
74.67
65.40
54.65
43.55
33.11
23.86
15.63
7.64
-1.20
-11.70
-24.15
-38.05
-52.41
-66.07
-78.22
-88.66
-97.83
-106.73
-116.71
-129.22
-145.29
-164.98
-186.68
-206.92
-220.90
-223.81
-212.46
-186.57
-148.96
-104.65
-59.27
-17.36
18.41
47.26
69.61
86.29
98.03
105.44
109.19
110.15
109.42
108.06
106.97
106.64
107.18
108.35
109.81
111.18
112.23
112.84
112.95
112.50
111.33
109.14
105.54
100.09
92.52
82.81
71.35
58.82
46.14
34.16
23.35
13.70
4.57
-4.98
-15.84
-28.42
-42.47
-57.11
-71.24
-84.00
-95.16
-105.18
-115.09
-126.21
-139.88
-157.10
-178.02
-201.37
-224.04
-241.39
-248.20
-240.42
-216.63
-178.79
-131.74
-81.56
-33.84
7.73
41.65
68.10
88.05
102.49
112.18
117.80
120.18
120.39
119.64
118.93
118.84
119.42
120.25
120.85
120.95
120.69
120.49
120.73
121.39
121.82
120.79
116.98
109.55
98.52
84.91
70.37
56.51
44.22
33.40
23.07
11.90
-1.12
-16.19
-32.61
-49.09
-64.30
-77.43
-88.49
-98.39
-108.73
-121.38
-137.92
-158.85
-182.82
-206.43
-224.59
-231.84
-224.10
-200.13
-162.15
-115.16
-65.32
-18.07
23.02
56.66
83.14
103.45
118.54
129.06
135.51
138.55
139.10
138.23
136.92
135.76
134.81
133.75
132.19
129.92
127.16
124.44
122.34
121.07
120.17
118.58
114.92
108.12
97.92
85.03
70.91
57.14
44.74
33.77
23.34
12.16
-0.83
-15.89
-32.28
-48.67
-63.68
-76.50
-87.14
-96.49
-105.98
-117.27
-131.83
-150.41
-172.39
-195.28
-214.80
-225.72
-223.43
-205.59
-173.17
-130.15
-82.33
-35.40
6.51
41.39
69.04
90.15
105.56
115.91
121.75
123.78
123.03
120.68
117.84
115.18
112.94
110.97
109.05
107.11
105.33
103.96
103.05
102.19
100.59
97.31
91.71
83.70
73.82
62.89
51.65
40.41
28.96
16.82
3.58
-10.76
-25.72
-40.50
-54.29
-66.60
-77.47
-87.51
-97.82
-109.80
-124.73
-143.14
-164.11
-184.83
-200.89
-207.39
-200.48
-178.94
-144.66
-102.21
-57.19
-14.61
22.34
52.58
76.47
94.89
108.55
117.80
122.89
124.32
122.97
120.00
116.52
113.22
110.37
107.89
105.63
103.58
101.81
100.37
98.97
97.01
93.63
88.08
80.06
69.84
58.20
46.10
34.25
22.80
11.43
-0.43
-13.20
-26.85
-40.83
-54.34
-66.65
-77.51
-87.29
-97.00
-108.05
-121.81
-139.03
-159.07
-179.53
-196.37
-204.88
-201.05
-183.08
-152.14
-112.09
-68.18
-25.54
12.24
43.49
68.22
87.27
101.62
111.94
118.66
122.22
123.16
122.20
120.10
117.39
114.37
111.11
107.71
104.40
101.54
99.48
98.22
97.23
95.56
92.11
86.12
77.51
66.90
55.40
44.04
33.32
23.08
12.64
1.27
-11.39
-25.03
-38.90
-52.07
-63.89
-74.27
-83.74
-93.37
-104.55
-118.53
-135.91
-155.88
-175.89
-191.83
-199.04
-193.82
-174.90
-143.98
-105.26
-63.94
-24.59
9.96
38.85
62.50
81.77
97.25
109.14
117.49
122.55
124.93
125.46
124.92
123.79
122.11
119.70
116.41
112.40
108.18
104.44
101.73
100.06
98.77
96.72
92.62
85.61
75.63
63.44
50.38
37.83
26.69
17.08
8.32
-0.70
-10.94
-22.78
-35.83
-49.09
-61.41
-71.95
-80.62
-88.09
-95.69
-105.00
-117.38
-133.42
-152.33
-171.72
-187.86
-196.46
-193.99
-178.92
-152.28
-117.38
-78.79
-40.85
-6.67
22.32
46.06
65.21
80.47
92.35
101.10
106.98
110.39
111.87
111.99
111.27
110.08
108.61
107.01
105.35
103.75
102.31
100.99
99.59
97.78
95.16
91.39
86.32
80.00
72.61
64.41
55.63
46.52
37.41
28.57
20.28
12.60
5.27
-2.22
-10.49
-19.96
-30.63
-42.02
-53.43
-64.20
-74.04
-83.05
-91.60
-100.18
-109.33
-119.71
-131.97
-146.50
-162.72
-178.69
-191.07
-195.96
-190.14
-172.42
-144.22
-109.15
-71.81
-36.33
-5.35
20.15
40.48
56.43
68.77
77.95
84.29
88.13
89.99
90.53
90.38
89.97
89.44
88.71
87.71
86.48
85.32
84.65
84.76
85.55
86.44
86.50
84.80
80.86
74.86
67.58
60.07
53.25
47.42
42.29
37.12
31.13
23.98
15.86
7.48
-0.38
-7.24
-13.18
-18.81
-25.00
-32.39
-41.17
-50.93
-60.92
-70.41
-78.94
-86.51
-93.51
-100.61
-108.69
-118.64
-131.08
-145.77
-161.16
-174.31
-181.46
-179.22
-165.83
-141.95
-110.52
-75.81
-41.98
-12.00
12.81
32.48
47.73
59.29
67.71
73.34
76.55
77.86
77.93
77.41
76.81
76.31
75.84
75.22
74.35
73.38
72.65
72.51
73.05
73.94
74.46
73.83
71.41
67.12
61.39
55.00
48.76
43.13
38.12
33.25
27.92
21.65
14.36
6.41
-1.53
-8.85
-15.26
-20.96
-26.54
-32.73
-40.02
-48.44
-57.59
-66.76
-75.31
-82.86
-89.49
-95.78
-102.62
-111.09
-122.08
-135.82
-151.40
-166.45
-177.55
-181.03
-174.21
-156.42
-129.34
-96.51
-62.14
-29.90
-2.11
20.42
37.92
51.08
60.60
67.08
71.08
73.20
74.06
74.15
73.81
73.19
72.29
71.15
69.89
68.78
68.18
68.34
69.29
70.76
72.17
72.79
72.00
69.48
65.35
60.13
54.49
49.03
43.97
39.12
33.95
27.92
20.74
12.59
4.05
-4.21
-11.79
-18.81
-25.85
-33.66
-42.71
-52.93
-63.77
-74.39
-84.14
-92.69
-100.21
-107.26
-114.70
-123.58
-134.95
-149.34
-166.21
-183.52
-197.77
-204.81
-201.22
-185.54
-158.90
-124.68
-87.33
-51.05
-18.73
8.27
29.87
46.58
59.05
67.88
73.69
77.16
79.03
80.01
80.60
81.05
81.40
81.53
81.44
81.24
81.23
81.74
82.89
84.44
85.85
86.39
85.45
82.77
78.56
73.33
67.67
61.89
55.98
49.57
42.27
33.94
24.84
15.56
6.76
-1.26
-8.68
-16.13
-24.44
-34.11
-45.16
-57.07
-68.95
-80.01
-89.82
-98.46
-106.51
-115.04
-125.33
-138.59
-155.30
-174.64
-194.11
-209.61
-216.61
-211.45
-192.75
-161.98
-123.03
-80.93
-40.34
-4.48
25.19
48.57
66.23
78.89
87.18
91.72
93.30
92.86
91.47
90.08
89.41
89.78
91.19
93.32
95.79
98.23
100.41
102.16
103.41
103.98
103.63
102.06
98.96
94.12
87.50
79.23
69.62
59.19
48.52
38.19
28.56
19.67
11.12
2.28
-7.46
-18.35
-30.15
-42.24
-53.84
-64.43
-73.91
-82.61
-91.26
-100.82
-112.34
-126.81
-144.63
-165.05
-185.57
-202.10
-209.81
-204.72
-185.13
-152.50
-110.94
-65.92
-22.54
15.66
47.06
71.45
89.35
101.32
107.89
109.68
107.70
103.40
98.42
94.25
91.78
91.22
92.00
93.27
94.22
94.50
94.27
94.00
94.08
94.37
94.19
92.46
88.20
80.95
71.03
59.46
47.57
36.53
26.92
18.54
10.55
1.84
-8.43
-20.50
-33.88
-47.55
-60.41
-71.79
-81.68
-90.73
-100.02
-110.82
-124.30
-141.17
-161.18
-182.61
-202.10
-215.10
-217.09
-205.09
-178.87
-141.18
-96.92
-51.53
-9.47
26.62
55.91
78.62
95.38
106.73
113.21
115.55
114.85
112.35
109.24
106.27
103.73
101.56
99.65
98.04
96.95
96.62
97.09
97.91
98.24
96.98
93.20
86.49
77.09
65.81
53.66
41.48
29.55
17.61
5.10
-8.42
-23.00
-38.14
-52.99
-66.73
-78.92
-89.76
-100.21
-111.80
-126.15
-144.34
-165.98
-188.67
-208.03
-218.75
-216.17
-198.02
-165.31
-122.10
-74.15
-27.17
14.67
49.26
76.31
96.65
111.44
121.74
128.29
131.64
132.21
130.38
126.71
121.94
116.92
112.42
108.86
106.22
104.05
101.75
98.81
95.00
90.31
84.83
78.57
71.36
62.86
52.75
40.85
27.24
12.30
-3.38
-19.12
-34.36
-48.68
-62.04
-74.60
-86.90
-99.79
-114.40
-131.75
-152.17
-174.52
-195.75
-211.28
-216.19
-206.92
-182.64
-145.70
-100.88
-53.81
-9.33
29.52
61.63
87.24
107.16
122.18
132.92
139.86
143.50
144.40
143.15
140.31
136.41
131.94
127.37
123.18
119.75
117.27
115.64
114.38
112.63
109.49
104.20
96.51
86.65
75.24
62.91
50.03
36.68
22.71
8.01
-7.24
-22.56
-37.31
-50.94
-63.26
-74.52
-85.43
-97.09
-110.78
-127.58
-147.72
-169.93
-191.01
-206.26
-210.72
-200.77
-175.65
-137.85
-92.36
-45.02
-0.71
37.71
69.47
95.14
115.63
131.51
142.90
149.82
152.54
151.83
148.82
144.71
140.45
136.53
133.04
129.84
126.81
123.95
121.34
119.04
116.89
114.53
111.45
107.09
100.99
92.94
82.98
71.47
59.00
46.29
34.05
22.75
12.50
3.07
-6.09
-15.56
-25.80
-36.99
-48.94
-61.20
-73.17
-84.36
-94.49
-103.65
-112.37
-121.60
-132.60
-146.55
-163.93
-183.75
-203.19
-217.90
-223.09
-215.15
-192.97
-158.54
-116.22
-71.38
-28.70
8.79
39.95
64.96
84.54
99.40
110.12
117.22
121.34
123.29
123.82
123.54
122.76
121.53
119.82
117.70
115.43
113.42
112.05
111.43
111.26
110.87
109.37
106.00
100.40
92.81
83.91
74.66
65.82
57.76
50.29
42.85
34.86
26.02
16.56
7.08
-1.70
-9.36
-16.05
-22.42
-29.40
-37.72
-47.58
-58.57
-69.88
-80.65
-90.33
-98.90
-106.82
-115.02
-124.67
-136.87
-152.16
-169.90
-187.78
-201.97
-207.97
-202.06
-182.79
-151.65
-112.66
-71.09
-31.74
2.27
29.79
51.18
67.42
79.40
87.72
92.85
95.33
95.92
95.49
94.78
94.19
93.77
93.37
92.78
92.01
91.23
90.73
90.63
90.73
90.49
89.26
86.49
82.07
76.30
69.79
63.09
56.46
49.80
42.72
34.93
26.38
17.43
8.62
0.43
-7.05
-14.13
-21.39
-29.41
-38.38
-48.08
-57.95
-67.33
-75.82
-83.41
-90.55
-98.01
-106.73
-117.61
-131.10
-146.75
-162.84
-176.33
-183.49
-180.95
-166.97
-142.21
-109.58
-73.36
-37.82
-6.16
20.06
40.66
56.24
67.61
75.38
80.04
81.99
81.78
80.10
77.69
75.25
73.27
71.97
71.32
71.10
71.11
71.19
71.27
71.25
70.88
69.86
67.86
64.70
60.41
55.17
49.16
42.53
35.36
27.71
19.78
11.83
4.09
-3.35
-10.71
-18.34
-26.62
-35.70
-45.38
-55.19
-64.56
-73.05
-80.53
-87.29
-93.92
-101.26
-110.24
-121.62
-135.53
-151.07
-166.03
-177.09
-180.63
-173.88
-156.04
-128.71
-95.48
-60.73
-28.29
-0.55
21.75
38.98
51.94
61.23
67.22
70.20
70.69
69.53
67.70
66.11
65.27
65.25
65.74
66.31
66.62
66.59
66.34
66.09
65.95
65.78
65.23
63.84
61.23
57.20
51.78
45.21
37.81
29.97
22.06
14.34
7.00
0.02
-6.84
-13.97
-21.83
-30.65
-40.32
-50.40
-60.23
-69.31
-77.50
-85.11
-92.95
-102.00
-113.19
-127.09
-143.47
-160.92
-176.79
-187.50
-189.42
-180.06
-159.08
-128.55
-92.43
-55.27
-21.01
8.03
31.13
48.72
61.59
70.43
75.72
77.89
77.63
75.89
73.72
72.08
71.46
71.89
73.05
74.46
75.67
76.46
76.83
76.87
76.65
76.14
75.07
73.04
69.63
64.51
57.68
49.54
40.84
32.39
24.79
18.19
12.19
6.07
-0.99
-9.49
-19.46
-30.45
-41.74
-52.59
-62.54
-71.52
-79.84
-88.11
-97.21
-108.16
-121.89
-138.80
-158.10
-177.40
-192.84
-199.92
-194.99
-176.65
-146.38
-108.20
-67.31
-28.47
5.17
32.42
53.54
69.36
80.59
87.67
90.92
90.95
88.76
85.62
82.71
80.78
79.99
80.02
80.42
80.79
81.10
81.56
82.41
83.69
84.99
85.56
84.42
80.83
74.52
65.92
56.00
45.92
36.61
28.42
21.00
13.54
5.08
-5.00
-16.71
-29.42
-42.15
-53.86
-63.93
-72.33
-79.66
-87.07
-96.03
-107.87
-123.36
-141.98
-161.55
-178.29
-187.62
-185.55
-170.10
-142.18
-105.33
-64.62
-25.04
9.69
37.72
58.80
73.62
83.19
88.49
90.37
89.65
87.18
83.80
80.31
77.36
75.42
74.64
74.92
75.92
77.12
77.98
78.03
76.89
74.32
70.23
64.69
57.93
50.17
41.57
32.14
21.78
10.41
-1.91
-14.91
-28.13
-41.08
-53.32
-64.64
-75.18
-85.49
-96.59
-109.71
-125.79
-144.66
-164.49
-181.65
-191.62
-190.29
-175.58
-148.24
-111.66
-70.77
-30.42
5.79
36.06
60.05
78.19
91.08
99.10
102.65
102.30
99.03
94.19
89.18
85.13
82.57
81.33
80.72
79.91
78.30
75.76
72.58
69.26
66.06
62.78
58.63
52.55
43.60
31.38
16.33
-0.43
-17.38
-33.21
-47.16
-59.24
-70.25
-81.46
-94.44
-110.53
-130.34
-153.15
-176.51
-196.39
-208.11
-207.67
-193.15
-165.60
-128.64
-87.45
-47.01
-10.94
19.20
43.49
62.89
78.39
90.52
99.45
105.27
108.34
109.41
109.47
109.49
110.16
111.77
114.21
117.11
120.03
122.53
124.24
124.96
124.60
123.06
120.15
115.45
108.41
98.53
85.66
70.28
53.39
36.34
20.29
5.91
-6.95
-19.03
-31.56
-45.92
-63.32
-84.41
-108.72
-134.29
-157.50
-173.77
-178.78
-169.94
-147.37
-113.96
-74.40
-33.73
4.08
36.87
64.03
85.99
103.42
116.77
126.29
132.11
134.58
134.32
132.19
129.19
126.15
123.57
121.62
120.14
118.85
117.50
115.94
114.09
111.86
109.06
105.34
100.26
93.44
84.69
74.15
62.31
49.92
37.81
26.70
16.93
8.40
0.53
-7.49
-16.45
-26.83
-38.65
-51.46
-64.51
-76.98
-88.33
-98.42
-107.59
-116.70
-126.91
-139.55
-155.57
-174.87
-195.72
-214.57
-226.69
-227.49
-214.07
-186.46
-147.69
-102.88
-57.54
-16.03
19.38
48.29
71.46
89.87
104.17
114.69
121.61
125.38
126.72
126.51
125.56
124.38
123.16
121.90
120.62
119.49
118.79
118.69
119.08
119.41
118.80
116.34
111.43
104.07
94.88
84.87
75.08
66.15
58.16
50.66
42.92
34.38
24.93
14.94
5.14
-3.75
-11.43
-18.15
-24.74
-32.21
-41.32
-52.21
-64.36
-76.72
-88.22
-98.19
-106.71
-114.55
-123.05
-133.64
-147.26
-163.82
-181.67
-197.64
-207.59
-207.59
-195.15
-170.29
-135.59
-95.42
-54.59
-17.06
14.88
40.59
60.55
75.71
86.90
94.75
99.73
102.37
103.25
103.04
102.32
101.53
100.88
100.43
100.21
100.25
100.58
101.14
101.70
101.81
100.91
98.52
94.42
88.70
81.66
73.74
65.28
56.52
47.54
38.40
29.21
20.16
11.53
3.53
-3.80
-10.67
-17.52
-24.89
-33.17
-42.41
-52.25
-62.10
-71.31
-79.55
-86.97
-94.30
-102.64
-113.19
-126.61
-142.47
-158.87
-172.50
-179.46
-176.44
-161.90
-136.77
-104.15
-68.37
-33.57
-2.71
22.84
43.00
58.40
69.71
77.46
82.06
83.99
83.92
82.67
80.97
79.35
78.10
77.24
76.71
76.46
76.53
76.92
77.53
78.05
78.00
76.84
74.18
69.94
64.41
58.08
51.50
45.04
38.78
32.49
25.88
18.76
11.28
3.82
-3.21
-9.65
-15.70
-21.96
-29.01
-37.15
-46.24
-55.69
-64.78
-72.96
-80.11
-86.51
-92.85
-100.06
-109.05
-120.48
-134.30
-149.24
-162.70
-171.16
-171.15
-160.44
-139.06
-109.34
-75.27
-41.16
-10.43
15.02
34.84
49.61
60.19
67.33
71.63
73.58
73.77
72.82
71.29
69.61
68.00
66.55
65.31
64.37
63.88
63.97
64.67
65.81
66.96
67.58
67.09
65.13
61.67
56.99
51.56
45.81
39.94
33.90
27.45
20.42
12.92
5.36
-1.79
-8.20
-13.98
-19.63
-25.84
-33.14
-41.65
-51.04
-60.71
-70.06
-78.73
-86.68
-94.23
-101.97
-110.76
-121.47
-134.55
-149.39
-163.98
-174.97
-178.62
-172.00
-154.23
-126.94
-93.73
-58.98
-26.53
1.25
23.55
40.67
53.30
62.15
67.74
70.63
71.51
71.21
70.54
70.04
69.95
70.16
70.48
70.72
70.86
71.05
71.42
71.98
72.52
72.67
71.96
69.99
66.56
61.65
55.46
48.32
40.56
32.48
24.32
16.27
8.43
0.87
-6.44
-13.70
-21.17
-29.12
-37.61
-46.47
-55.28
-63.59
-71.14
-78.05
-84.77
-92.07
-100.81
-111.86
-125.77
-142.37
-160.30
-176.82
-188.15
-190.46
-181.21
-160.15
-129.60
-93.71
-57.12
-23.55
4.88
27.72
45.47
58.92
68.61
74.92
78.18
78.99
78.21
76.80
75.56
74.95
75.01
75.51
76.13
76.60
76.88
77.10
77.40
77.83
78.20
78.03
76.67
73.47
68.07
60.54
51.50
41.89
32.65
24.38
17.05
10.09
2.59
-6.28
-16.92
-29.10
-42.06
-54.82
-66.50
-76.68
-85.56
-93.86
-102.73
-113.45
-127.10
-144.00
-163.31
-182.62
-198.25
-205.96
-202.30
-185.76
-157.47
-120.85
-80.63
-41.38
-6.37
22.75
45.73
63.03
75.27
83.04
86.97
87.82
86.62
84.45
82.23
80.51
79.42
78.82
78.50
78.42
78.65
79.46
80.89
82.72
84.26
84.56
82.64
77.93
70.57
61.38
51.58
42.23
33.77
25.85
17.57
7.97
-3.41
-16.27
-29.66
-42.41
-53.65
-63.20
-71.64
-80.08
-89.91
-102.49
-118.66
-138.19
-159.27
-178.45
-191.15
-192.97
-181.18
-155.82
-119.83
-78.14
-36.06
2.17
34.20
59.36
78.00
90.71
98.01
100.44
98.80
94.36
88.71
83.38
79.48
77.45
77.14
78.07
79.71
81.71
83.74
85.43
86.24
85.51
82.67
77.50
70.20
61.33
51.53
41.23
30.49
19.07
6.72
-6.63
-20.68
-34.81
-48.33
-60.69
-71.81
-82.15
-92.73
-104.94
-120.10
-138.87
-160.51
-182.48
-200.62
-210.04
-206.64
-188.49
-156.68
-115.03
-68.95
-23.85
16.21
49.09
74.38
92.71
105.06
112.41
115.61
115.63
113.48
110.28
107.01
104.36
102.63
101.76
101.53
101.67
101.91
101.99
101.59
100.24
97.40
92.63
85.74
76.94
66.68
55.55
43.94
31.94
19.32
5.75
-8.88
-24.33
-39.93
-54.84
-68.39
-80.36
-91.27
-102.28
-114.99
-130.91
-150.72
-173.49
-196.27
-214.37
-222.50
-216.44
-194.68
-158.95
-113.87
-65.28
-18.59
22.59
56.74
83.96
105.01
120.65
131.44
137.90
140.75
140.96
139.60
137.59
135.44
133.22
130.80
128.07
125.19
122.52
120.48
119.10
117.91
115.90
111.91
105.08
95.28
83.15
69.89
56.68
44.25
32.53
20.86
8.29
-5.82
-21.45
-37.86
-53.91
-68.47
-80.99
-91.79
-101.97
-113.22
-127.35
-145.60
-167.89
-192.24
-214.69
-229.95
-232.87
-220.12
-191.52
-150.23
-101.72
-51.97
-5.75
34.31
67.63
94.77
116.48
133.19
144.95
151.92
154.69
154.39
152.41
149.94
147.64
145.52
143.18
140.24
136.68
132.96
129.76
127.62
126.52
125.66
123.74
119.36
111.62
100.44
86.65
71.66
57.00
43.71
32.05
21.44
10.78
-1.06
-14.71
-30.05
-46.19
-61.87
-75.93
-87.84
-97.85
-107.02
-116.86
-129.01
-144.67
-164.01
-185.67
-206.46
-221.82
-226.81
-217.82
-193.78
-156.81
-111.62
-63.90
-18.72
20.76
53.51
79.98
101.17
117.88
130.49
139.19
144.26
146.32
146.20
144.78
142.75
140.45
138.00
135.40
132.62
129.80
127.10
124.63
122.25
119.60
116.08
111.11
104.32
95.64
85.39
74.06
62.22
50.35
38.86
28.02
18.02
8.83
0.16
-8.56
-18.01
-28.68
-40.58
-53.26
-65.89
-77.70
-88.23
-97.56
-106.21
-115.08
-125.27
-137.88
-153.64
-172.28
-191.99
-209.28
-219.63
-218.75
-204.12
-176.04
-137.65
-93.93
-50.05
-10.02
24.04
51.75
73.73
90.88
103.89
113.21
119.20
122.30
123.15
122.43
120.83
118.87
116.87
115.00
113.41
112.20
111.44
111.07
110.81
110.11
108.32
104.90
99.65
92.72
84.59
75.72
66.52
57.20
47.80
38.33
28.81
19.42
10.35
1.80
-6.18
-13.76
-21.30
-29.30
-38.17
-47.98
-58.45
-68.96
-78.86
-87.74
-95.65
-103.10
-111.08
-120.76
-133.09
-148.18
-164.79
-180.05
-190.01
-190.66
-179.40
-156.07
-123.22
-85.25
-47.03
-12.40
16.52
39.36
56.77
69.71
78.95
84.98
88.24
89.27
88.82
87.71
86.65
86.05
85.95
86.15
86.36
86.43
86.42
86.56
87.04
87.82
88.45
88.16
86.20
82.11
76.04
68.70
61.09
54.06
47.96
42.55
37.18
31.13
24.03
15.99
7.52
-0.71
-8.23
-14.94
-21.18
-27.58
-34.75
-42.94
-51.98
-61.35
-70.34
-78.41
-85.42
-91.63
-97.67
-104.45
-112.95
-123.91
-137.34
-152.05
-165.44
-173.94
-173.95
-163.22
-141.71
-111.88
-77.81
-43.92
-13.63
11.33
30.80
45.53
56.42
64.10
68.91
71.15
71.32
70.16
68.49
66.99
66.02
65.55
65.38
65.31
65.28
65.37
65.69
66.14
66.37
65.84
64.01
60.64
55.83
50.03
43.88
37.91
32.40
27.20
21.96
16.30
10.06
3.43
-3.17
-9.38
-15.13
-20.78
-27.00
-34.32
-42.86
-52.10
-61.20
-69.31
-76.09
-81.81
-87.30
-93.66
-101.89
-112.67
-125.86
-140.24
-153.40
-162.10
-163.09
-154.17
-135.11
-107.88
-76.04
-43.69
-14.22
10.34
29.44
43.55
53.55
60.28
64.46
66.63
67.32
67.03
66.16
65.04
63.88
62.84
62.05
61.62
61.63
62.05
62.73
63.40
63.73
63.40
62.17
59.86
56.37
51.70
45.93
39.25
31.91
24.22
16.49
9.02
2.03
-4.43
-10.48
-16.43
-22.75
-29.79
-37.73
-46.45
-55.56
-64.55
-73.03
-80.89
-88.28
-95.70
-103.88
-113.68
-125.82
-140.39
-156.36
-171.38
-182.02
-184.73
-177.04
-158.48
-130.91
-97.89
-63.57
-31.49
-3.85
18.64
36.22
49.64
59.61
66.59
70.96
73.07
73.39
72.54
71.17
69.84
68.93
68.58
68.68
69.02
69.42
69.74
69.96
70.03
69.85
69.19
67.74
65.14
61.13
55.64
48.83
41.08
32.93
24.87
17.30
10.39
4.02
-2.17
-8.66
-16.01
-24.62
-34.56
-45.55
-56.97
-68.10
-78.36
-87.50
-95.78
-103.94
-113.09
-124.46
-139.01
-156.79
-176.36
-194.66
-207.49
-210.64
-201.42
-179.59
-147.60
-109.73
-70.72
-34.33
-2.75
23.38
44.37
60.76
72.94
81.19
85.85
87.57
87.29
86.11
84.99
84.55
84.96
86.00
87.23
88.23
88.75
88.80
88.56
88.21
87.69
86.58
84.27
80.07
73.61
65.05
55.11
44.83
35.15
26.51
18.68
10.89
2.15
-8.23
-20.34
-33.61
-47.00
-59.49
-70.43
-79.81
-88.26
-96.88
-106.91
-119.50
-135.39
-154.41
-175.10
-194.45
-208.25
-212.12
-202.92
-179.97
-145.45
-103.75
-60.07
-18.89
16.96
46.39
69.45
86.64
98.43
105.31
108.00
107.63
105.67
103.55
102.27
102.17
102.94
103.92
104.52
104.52
104.14
103.86
103.99
104.37
104.18
102.29
97.72
90.06
79.82
68.22
56.68
46.22
37.00
28.30
18.90
7.77
-5.42
-20.06
-34.93
-48.67
-60.45
-70.30
-79.08
-88.21
-99.29
-113.65
-131.89
-153.32
-175.56
-194.60
-205.54
-204.04
-187.78
-157.47
-116.77
-71.10
-26.01
14.30
47.61
73.50
92.55
105.63
113.49
116.82
116.49
113.63
109.63
105.83
103.19
102.08
102.23
103.02
103.82
104.34
104.61
104.79
104.78
104.01
101.61
96.73
89.08
79.12
67.98
56.93
46.81
37.64
28.72
18.94
7.40
-6.13
-21.15
-36.53
-51.07
-63.89
-74.77
-84.29
-93.75
-104.81
-119.02
-137.10
-158.15
-179.28
-195.88
-202.73
-195.70
-173.36
-137.62
-93.26
-46.33
-2.35
35.10
64.66
86.60
101.98
111.80
116.85
117.87
115.92
112.36
108.60
105.72
104.13
103.58
103.39
102.97
102.08
100.99
100.17
99.90
99.92
99.35
97.01
91.90
83.68
72.85
60.63
48.44
37.24
27.24
17.76
7.71
-3.88
-17.20
-31.63
-45.92
-58.78
-69.43
-77.97
-85.34
-93.08
-102.92
-116.27
-133.58
-153.76
-173.74
-188.96
-194.39
-186.24
-163.36
-127.87
-84.56
-39.34
2.55
37.79
65.25
85.41
99.49
108.64
113.72
115.40
114.38
111.55
107.92
104.42
101.73
100.10
99.40
99.26
99.25
98.99
98.23
96.76
94.35
90.76
85.76
79.24
71.31
62.17
52.08
41.20
29.56
17.16
4.09
-9.34
-22.64
-35.28
-46.79
-57.03
-66.24
-75.05
-84.56
-96.07
-110.63
-128.22
-147.11
-163.73
-173.37
-171.72
-156.45
-128.24
-90.67
-49.06
-8.68
26.62
55.06
76.59
92.03
102.31
108.13
109.98
108.49
104.58
99.40
94.10
89.54
86.13
83.80
82.25
81.08
79.97
78.64
76.85
74.38
70.97
66.53
61.07
54.70
47.56
39.70
31.02
21.32
10.52
-1.30
-13.76
-26.28
-38.23
-49.17
-59.05
-68.21
-77.48
-87.92
-100.68
-116.40
-134.61
-153.32
-168.98
-177.34
-174.65
-159.10
-131.63
-95.74
-56.41
-18.55
14.34
40.67
60.49
74.71
84.26
89.80
91.67
90.32
86.53
81.43
76.30
72.21
69.68
68.56
68.25
67.95
67.03
65.27
62.77
59.88
56.85
53.60
49.74
44.63
37.65
28.46
17.12
4.14
-9.63
-23.26
-35.95
-47.29
-57.29
-66.38
-75.31
-84.98
-96.31
-109.91
-125.66
-142.25
-157.08
-166.64
-167.39
-157.04
-135.44
-104.89
-69.46
-33.71
-1.37
25.52
46.64
62.75
74.85
83.58
89.10
91.43
90.83
88.10
84.47
81.18
79.06
78.16
77.83
77.16
75.42
72.43
68.57
64.48
60.66
57.07
53.16
48.08
41.07
31.76
20.40
7.68
-5.46
-18.14
-29.76
-40.13
-49.53
-58.51
-67.94
-78.76
-91.81
-107.50
-125.35
-143.65
-159.46
-169.14
-169.31
-158.08
-135.70
-104.65
-68.95
-32.90
0.05
27.97
50.37
67.77
80.91
90.43
96.66
99.80
100.19
98.41
95.22
91.44
87.71
84.42
81.67
79.42
77.49
75.70
73.75
71.32
68.07
63.72
58.20
51.60
44.14
35.99
27.28
17.95
7.93
-2.80
-14.07
-25.51
-36.67
-47.14
-56.73
-65.59
-74.28
-83.71
-94.89
-108.66
-125.06
-142.87
-159.44
-171.11
-174.21
-166.34
-147.22
-118.94
-85.25
-50.31
-17.47
11.33
35.59
55.61
71.88
84.67
94.06
100.13
103.25
104.14
103.68
102.60
101.35
99.97
98.28
96.08
93.39
90.45
87.68
85.37
83.49
81.62
78.99
74.80
68.47
59.99
49.93
39.29
29.18
20.38
13.06
6.71
0.39
-6.89
-15.73
-26.10
-37.35
-48.58
-58.93
-67.97
-75.84
-83.20
-91.05
-100.50
-112.41
-127.04
-143.59
-159.99
-173.00
-178.98
-174.92
-159.61
-134.13
-101.64
-66.28
-31.93
-1.20
24.84
46.29
63.75
77.74
88.46
95.96
100.36
102.03
101.61
99.91
97.74
95.74
94.28
93.38
92.80
92.16
91.17
89.69
87.84
85.73
83.39
80.58
76.83
71.60
64.58
55.89
46.08
36.03
26.58
18.27
11.09
4.58
-1.98
-9.26
-17.62
-26.99
-36.90
-46.72
-55.87
-64.07
-71.38
-78.24
-85.41
-93.88
-104.63
-118.11
-133.84
-149.99
-163.48
-170.69
-168.55
-155.66
-132.80
-102.78
-69.45
-36.60
-6.98
18.03
38.26
54.21
66.49
75.54
81.59
84.85
85.68
84.72
82.83
80.86
79.44
78.78
78.72
78.86
78.91
78.73
78.38
77.96
77.39
76.34
74.30
70.83
65.74
59.15
51.47
43.21
34.84
26.68
18.90
11.52
4.44
-2.51
-9.55
-16.96
-24.89
-33.32
-42.06
-50.73
-58.97
-66.53
-73.42
-79.89
-86.48
-93.94
-103.13
-114.52
-127.79
-141.40
-152.58
-157.97
-154.63
-141.19
-118.42
-89.12
-57.13
-26.15
1.17
23.61
41.13
54.24
63.57
69.62
72.82
73.70
72.98
71.43
69.74
68.40
67.58
67.31
67.45
67.88
68.46
69.04
69.41
69.35
68.59
66.91
64.21
60.51
55.95
50.72
45.05
39.11
33.01
26.78
20.45
14.08
7.74
1.48
-4.74
-11.14
-18.00
-25.50
-33.60
-42.01
-50.24
-57.83
-64.55
-70.51
-76.19
-82.34
-89.82
-99.42
-111.54
-125.73
-140.38
-152.76
-159.56
-157.86
-146.19
-125.13
-97.20
-66.12
-35.54
-8.18
14.61
32.70
46.54
56.77
63.81
67.97
69.61
69.24
67.60
65.46
63.54
62.23
61.64
61.60
61.85
62.18
62.49
62.74
62.90
62.85
62.25
60.73
57.90
53.57
47.77
40.80
33.10
25.22
17.63
10.61
4.21
-1.83
-8.02
-14.89
-22.90
-32.17
-42.33
-52.74
-62.65
-71.48
-79.14
-85.98
-92.72
-100.35
-109.85
-121.86
-136.36
-152.24
-167.05
-177.38
-179.70
-171.53
-152.42
-124.29
-90.84
-56.33
-24.35
2.98
25.05
42.24
55.19
64.34
69.92
72.26
72.00
70.17
67.92
66.17
65.36
65.34
65.71
66.01
66.12
66.20
66.64
67.60
68.92
70.03
70.03
68.06
63.60
56.60
47.64
37.71
27.91
19.03
11.27
4.09
-3.40
-12.12
-22.50
-34.23
-46.43
-58.01
-68.21
-76.86
-84.46
-91.96
-100.57
-111.42
-125.31
-142.32
-161.30
-179.64
-193.58
-199.06
-193.02
-174.56
-145.34
-109.14
-70.54
-33.70
-1.32
25.49
46.75
63.01
74.82
82.63
86.89
88.30
87.79
86.40
85.06
84.29
84.21
84.58
85.02
85.30
85.48
85.82
86.53
87.52
88.13
87.36
84.17
77.98
68.98
58.16
46.93
36.48
27.35
19.19
10.95
1.50
-9.85
-22.96
-36.96
-50.67
-63.11
-73.91
-83.44
-92.65
-102.87
-115.51
-131.56
-151.13
-172.77
-193.33
-208.32
-213.08
-204.37
-181.53
-146.93
-105.20
-61.74
-21.16
13.72
41.96
63.95
80.53
92.47
100.30
104.49
105.71
104.89
103.06
101.13
99.61
98.62
98.03
97.71
97.66
98.00
98.80
99.81
100.35
99.48
96.27
90.27
81.75
71.61
61.04
50.93
41.52
32.28
22.25
10.61
-2.87
-17.60
-32.50
-46.39
-58.64
-69.36
-79.41
-90.18
-103.18
-119.63
-139.78
-162.32
-184.05
-200.24
-205.85
-197.23
-173.56
-137.31
-93.44
-47.77
-5.19
31.38
60.99
83.94
100.93
112.59
119.42
122.12
121.73
119.51
116.68
114.11
112.20
110.89
109.97
109.27
108.78
108.65
108.94
109.41
109.40
107.86
103.82
96.72
86.80
75.07
62.88
51.38
41.05
31.43
21.49
10.19
-2.97
-17.59
-32.58
-46.65
-58.90
-69.20
-78.39
-87.99
-99.83
-115.37
-134.99
-157.39
-179.24
-195.72
-201.71
-193.40
-169.84
-133.32
-88.75
-42.05
1.60
38.94
68.74
91.20
107.12
117.35
122.62
123.77
121.92
118.42
114.58
111.37
109.20
108.02
107.43
107.01
106.45
105.73
104.90
103.92
102.51
100.08
95.91
89.45
80.68
70.19
58.99
48.06
37.91
28.31
18.47
7.51
-5.02
-18.81
-32.92
-46.17
-57.74
-67.54
-76.33
-85.54
-96.85
-111.65
-130.31
-151.55
-172.20
-187.57
-192.69
-183.94
-160.44
-124.54
-81.20
-36.40
4.65
38.69
64.69
83.25
95.67
103.16
106.64
106.84
104.61
101.00
97.15
94.02
92.08
91.25
91.14
91.29
91.46
91.64
91.86
91.93
91.26
89.03
84.50
77.39
68.05
57.41
46.57
36.39
27.11
18.33
9.27
-0.84
-12.28
-24.73
-37.35
-49.23
-59.78
-69.04
-77.76
-87.22
-98.83
-113.60
-131.39
-150.43
-167.23
-177.25
-176.20
-161.60
-133.92
-96.56
-54.87
-14.35
20.93
49.12
70.33
85.65
96.18
102.56
105.12
104.30
101.05
96.76
92.87
90.38
89.49
89.72
90.25
90.38
89.85
88.88
87.92
87.29
86.90
86.22
84.39
80.57
74.23
65.42
54.74
43.29
32.27
22.55
14.45
7.51
0.77
-6.81
-15.92
-26.52
-37.92
-49.06
-59.01
-67.30
-74.13
-80.24
-86.75
-94.83
-105.58
-119.57
-136.41
-154.31
-170.04
-179.53
-178.99
-166.34
-141.99
-108.92
-71.71
-35.05
-2.52
24.14
44.69
59.85
70.46
77.19
80.55
81.11
79.77
77.56
75.51
74.21
73.73
73.71
73.69
73.38
72.87
72.53
72.68
73.33
73.97
73.74
71.70
67.23
60.27
51.40
41.61
31.91
22.97
14.90
7.26
-0.70
-9.60
-19.58
-30.29
-40.93
-50.67
-59.05
-66.15
-72.68
-79.80
-88.78
-100.60
-115.44
-132.18
-148.24
-159.97
-163.54
-156.21
-137.41
-109.04
-75.00
-39.88
-7.61
19.38
40.40
55.87
66.66
73.46
76.76
77.03
74.96
71.59
68.01
65.08
63.21
62.21
61.63
61.03
60.29
59.55
59.10
58.92
58.64
57.50
54.72
49.87
43.07
34.99
26.50
18.27
10.57
3.15
-4.51
-12.91
-22.26
-32.31
-42.52
-52.23
-60.95
-68.62
-75.66
-82.93
-91.63
-102.80
-116.90
-133.16
-149.37
-162.10
-167.57
-162.84
-146.92
-121.24
-89.23
-55.18
-22.98
4.81
27.21
44.42
57.12
65.99
71.53
74.13
74.28
72.70
70.22
67.65
65.54
64.12
63.37
63.11
63.12
63.19
63.13
62.64
61.33
58.78
54.65
48.85
41.56
33.16
24.05
14.48
4.53
-5.86
-16.75
-27.99
-39.27
-50.12
-60.10
-69.03
-77.05
-84.75
-93.05
-103.07
-115.67
-130.93
-147.63
-163.07
-173.59
-175.55
-166.61
-146.62
-117.82
-84.08
-49.60
-17.77
9.58
32.06
50.14
64.49
75.56
83.55
88.54
90.81
90.81
89.21
86.65
83.72
80.84
78.33
76.38
75.11
74.39
73.95
73.28
71.80
68.99
64.55
58.46
50.98
42.49
33.38
23.83
13.81
3.13
-8.33
-20.49
-32.95
-45.13
-56.55
-67.04
-76.89
-86.80
-97.69
-110.48
-125.70
-143.06
-161.07
-176.98
-187.15
-188.15
-177.78
-156.11
-125.48
-89.78
-53.19
-19.03
10.88
36.08
56.89
73.83
87.25
97.31
104.18
108.18
109.86
109.86
108.80
107.06
104.84
102.17
99.22
96.35
94.07
92.79
92.47
92.47
91.67
88.89
83.38
75.18
65.11
54.40
44.14
34.79
26.06
17.08
6.97
-4.71
-17.73
-31.25
-44.24
-55.94
-66.23
-75.64
-85.24
-96.34
-110.14
-127.22
-147.02
-167.49
-185.08
-195.53
-195.08
-181.77
-156.26
-121.63
-82.40
-43.06
-6.86
24.63
51.25
73.55
92.01
106.77
117.75
124.89
128.48
129.22
128.08
126.03
123.81
121.79
120.07
118.55
117.13
115.76
114.41
113.02
111.40
109.24
106.11
101.60
95.42
87.56
78.29
68.08
57.53
47.18
37.36
28.20
19.55
11.08
2.35
-7.07
-17.49
-28.94
-41.11
-53.45
-65.27
-76.09
-85.80
-94.77
-103.79
-113.97
-126.41
-141.79
-159.81
-178.73
-195.30
-205.36
-204.96
-191.73
-165.87
-130.23
-89.40
-48.26
-10.62
21.55
47.90
69.06
85.78
98.49
107.38
112.62
114.74
114.66
113.51
112.31
111.66
111.63
111.96
112.27
112.37
112.31
112.30
112.44
112.54
111.96
109.88
105.62
98.95
90.30
80.55
70.71
61.52
53.15
45.25
37.23
28.64
19.45
10.09
1.19
-6.77
-13.73
-20.17
-26.86
-34.53
-43.46
-53.37
-63.57
-73.28
-82.02
-89.76
-96.93
-104.25
-112.61
-122.94
-135.92
-151.56
-168.65
-184.51
-195.24
-196.80
-186.36
-163.49
-130.49
-91.68
-51.96
-15.35
15.83
41.02
60.73
75.75
86.69
93.90
97.76
98.84
98.06
96.43
94.81
93.71
93.18
93.01
92.97
92.99
93.17
93.66
94.41
95.02
94.82
93.08
89.39
83.83
76.98
69.71
62.67
56.10
49.70
42.91
35.28
26.74
17.72
8.85
0.65
-6.84
-14.02
-21.54
-29.92
-39.22
-49.10
-58.85
-67.89
-75.91
-82.99
-89.58
-96.48
-104.63
-115.01
-128.27
-144.06
-160.69
-175.03
-183.14
-181.46
-168.05
-143.42
-110.42
-73.33
-36.55
-3.44
24.14
45.78
61.95
73.40
80.93
85.20
86.83
86.50
84.94
82.83
80.77
79.12
78.03
77.47
77.32
77.48
77.86
78.34
78.72
78.75
78.06
76.33
73.37
69.15
63.75
57.30
49.98
42.00
33.60
25.10
16.82
9.01
1.69
-5.33
-12.44
-20.11
-28.59
-37.88
-47.60
-57.19
-66.12
-74.12
-81.32
-88.25
-95.71
-104.55
-115.52
-128.89
-144.10
-159.42
-172.01
-178.41
-175.51
-161.65
-137.34
-105.27
-69.48
-34.16
-2.56
23.60
43.96
59.04
69.65
76.56
80.46
81.99
81.87
80.81
79.42
78.12
77.09
76.33
75.80
75.53
75.67
76.32
77.44
78.73
79.61
79.41
77.55
73.83
68.46
62.02
55.21
48.50
42.05
35.64
28.88
21.45
13.33
4.83
-3.56
-11.47
-18.85
-26.05
-33.62
-42.02
-51.37
-61.31
-71.16
-80.21
-88.04
-94.74
-100.98
-107.94
-116.94
-129.06
-144.50
-162.05
-178.89
-191.03
-194.41
-186.15
-165.72
-135.15
-98.41
-60.17
-24.43
6.26
31.00
50.01
64.04
73.85
80.09
83.32
84.21
83.52
82.03
80.40
79.05
78.12
77.55
77.23
77.08
77.11
77.37
77.84
78.37
78.59
78.08
76.39
73.23
68.51
62.32
54.91
46.60
37.73
28.72
19.95
11.73
4.17
-2.88
-9.87
-17.36
-25.80
-35.24
-45.35
-55.49
-65.01
-73.57
-81.23
-88.48
-96.13
-105.12
-116.44
-130.72
-147.74
-166.05
-182.71
-193.71
-195.12
-184.30
-161.10
-127.99
-89.42
-50.32
-14.73
15.05
38.45
56.07
68.81
77.43
82.42
84.31
83.83
82.02
79.95
78.47
77.93
78.15
78.66
78.97
78.92
78.74
78.89
79.75
81.25
82.67
82.79
80.36
74.56
65.50
54.19
42.23
31.13
21.69
13.75
6.30
-1.96
-11.94
-23.81
-36.90
-50.02
-62.03
-72.29
-80.89
-88.56
-96.46
-105.88
-118.02
-133.47
-151.76
-170.96
-187.58
-197.23
-195.88
-181.24
-153.79
-116.78
-75.24
-34.37
1.86
31.47
54.25
70.97
82.53
89.66
92.83
92.72
90.31
86.90
83.72
81.62
80.88
81.27
82.37
83.81
85.41
87.02
88.40
89.09
88.43
85.81
80.94
73.98
65.51
56.32
47.03
37.83
28.45
18.28
6.85
-5.96
-19.66
-33.35
-46.08
-57.29
-67.04
-76.14
-85.88
-97.77
-112.91
-131.44
-151.92
-171.21
-184.92
-188.54
-179.02
-155.91
-121.72
-81.15
-39.56
-1.40
30.78
56.30
75.77
90.10
100.01
105.81
107.78
106.49
102.94
98.45
94.29
91.37
89.98
89.85
90.33
90.68
90.35
89.02
86.66
83.36
79.21
74.21
68.17
60.75
51.62
40.56
27.66
13.38
-1.48
-16.00
-29.37
-41.19
-51.59
-61.12
-70.77
-81.70
-95.05
-111.52
-130.74
-150.83
-168.22
-178.38
-177.03
-161.78
-133.13
-94.50
-51.22
-8.82
28.57
58.89
82.02
98.87
110.41
117.20
119.56
117.89
113.13
106.83
100.70
96.18
93.83
93.24
93.33
92.90
91.17
88.07
84.17
80.21
76.64
73.31
69.43
63.88
55.69
44.42
30.46
14.84
-1.02
-15.88
-28.97
-40.26
-50.34
-60.22
-71.10
-84.11
-100.03
-118.89
-139.40
-158.80
-173.02
-177.72
-169.71
-148.17
-115.25
-75.45
-34.18
3.88
35.88
60.99
79.77
93.19
101.94
106.34
106.69
103.74
98.76
93.38
89.00
86.28
84.96
84.07
82.50
79.63
75.62
71.27
67.51
64.68
62.20
58.67
52.50
42.67
29.28
13.58
-2.51
-17.22
-29.50
-39.39
-47.80
-56.13
-65.89
-78.34
-94.16
-113.02
-133.26
-151.67
-164.03
-166.20
-155.56
-132.06
-98.49
-59.59
-20.45
14.89
44.35
67.62
85.35
98.26
106.67
110.62
110.32
106.56
100.72
94.48
89.17
85.39
82.87
80.74
78.08
74.39
69.87
65.20
61.13
57.90
55.00
51.21
45.12
35.75
23.04
7.93
-7.94
-22.85
-35.62
-46.01
-54.75
-63.25
-73.19
-86.02
-102.45
-121.99
-142.62
-160.85
-172.44
-173.51
-161.87
-137.85
-104.36
-65.93
-27.30
7.90
37.83
62.25
81.81
97.21
108.76
116.36
119.95
119.84
116.86
112.23
107.20
102.61
98.76
95.43
92.12
88.43
84.22
79.67
75.09
70.62
66.13
61.08
54.73
46.41
35.79
23.06
8.91
-5.66
-19.69
-32.43
-43.66
-53.62
-62.97
-72.58
-83.42
-96.35
-111.83
-129.47
-147.65
-163.50
-173.32
-173.64
-162.32
-139.48
-107.52
-70.41
-32.50
2.73
33.26
58.56
78.95
95.05
107.28
115.82
120.82
122.62
121.78
119.07
115.20
110.75
106.04
101.29
96.69
92.54
89.11
86.54
84.59
82.59
79.61
74.83
67.86
58.94
48.78
38.18
27.68
17.26
6.52
-5.06
-17.71
-31.17
-44.81
-57.82
-69.58
-79.91
-89.16
-98.19
-108.14
-120.14
-134.63
-150.88
-166.65
-178.44
-182.47
-175.86
-157.73
-129.57
-94.78
-57.52
-21.53
10.69
38.07
60.50
78.34
91.93
101.47
107.21
109.56
109.26
107.19
104.20
100.90
97.52
93.99
90.24
86.36
82.73
79.82
77.90
76.77
75.68
73.55
69.39
62.76
53.95
43.89
33.75
24.48
16.37
9.06
1.70
-6.56
-16.14
-26.81
-37.80
-48.14
-57.17
-64.81
-71.56
-78.38
-86.31
-96.27
-108.75
-123.41
-138.82
-152.46
-161.00
-161.26
-151.23
-130.94
-102.55
-69.78
-36.69
-6.46
19.14
39.85
56.21
68.94
78.48
84.93
88.30
88.89
87.33
84.58
81.59
79.00
76.98
75.34
73.76
71.99
70.02
68.05
66.27
64.76
63.31
61.52
58.84
54.80
49.16
42.08
34.12
26.05
18.57
12.07
6.34
0.83
-5.22
-12.33
-20.60
-29.65
-38.85
-47.56
-55.38
-62.31
-68.62
-74.88
-81.75
-89.96
-100.09
-112.33
-126.01
-139.44
-149.97
-154.60
-150.89
-137.82
-116.31
-88.93
-59.11
-30.08
-4.15
17.61
35.10
48.66
58.72
65.58
69.58
71.20
71.06
69.89
68.31
66.77
65.48
64.55
64.02
63.94
64.35
65.12
65.98
66.55
66.40
65.14
62.60
58.73
53.77
48.13
42.36
36.96
32.21
27.99
23.83
19.17
13.57
7.03
0.02
-6.83
-12.97
-18.28
-23.05
-27.91
-33.43
-39.92
-47.28
-55.08
-62.73
-69.73
-75.87
-81.36
-86.85
-93.30
-101.63
-112.29
-124.74
-137.24
-147.07
-151.20
-147.24
-134.30
-113.34
-86.87
-58.21
-30.50
-5.95
14.36
30.34
42.36
50.98
56.59
59.56
60.26
59.27
57.28
55.07
53.24
52.16
51.88
52.26
53.04
54.02
55.05
56.04
56.87
57.34
57.20
56.17
54.01
50.58
45.90
40.13
33.61
26.72
19.79
13.13
6.85
0.99
-4.56
-10.02
-15.61
-21.60
-28.12
-35.18
-42.54
-49.85
-56.75
-62.99
-68.64
-74.12
-80.18
-87.76
-97.66
-110.08
-124.16
-137.87
-148.20
-152.07
-147.18
-132.94
-110.71
-83.34
-54.29
-26.59
-2.30
17.76
33.50
45.33
53.60
58.70
61.00
61.06
59.61
57.47
55.40
53.90
53.19
53.20
53.69
54.40
55.16
55.83
56.40
56.76
56.73
56.06
54.49
51.79
47.83
42.63
36.36
29.34
22.02
14.81
8.01
1.61
-4.62
-11.14
-18.39
-26.52
-35.39
-44.56
-53.47
-61.74
-69.25
-76.18
-83.02
-90.34
-98.91
-109.49
-122.53
-137.78
-153.73
-167.65
-176.01
-175.59
-164.59
-143.40
-114.51
-81.73
-48.94
-19.11
6.15
26.44
42.08
53.60
61.49
66.14
68.06
67.94
66.62
65.04
63.99
63.97
65.03
66.91
69.13
71.24
72.96
74.20
74.95
75.14
74.60
72.95
69.86
65.11
58.70
50.87
42.07
32.84
23.74
15.16
7.26
-0.11
-7.41
-15.21
-24.00
-33.91
-44.67
-55.64
-66.09
-75.49
-83.73
-91.19
-98.69
-107.32
-118.24
-132.19
-149.04
-167.26
-183.87
-194.93
-196.58
-186.30
-163.86
-131.55
-93.42
-54.06
-17.33
14.38
40.10
59.96
74.49
84.22
89.68
91.55
90.77
88.54
86.13
84.52
84.14
84.89
86.24
87.62
88.72
89.63
90.67
92.10
93.77
94.98
94.64
91.71
85.64
76.72
65.97
54.75
44.28
35.12
27.01
19.06
10.25
-0.17
-12.29
-25.49
-38.74
-50.95
-61.42
-70.10
-77.64
-85.31
-94.66
-107.10
-123.40
-142.98
-163.53
-181.18
-191.24
-189.62
-174.20
-145.71
-107.55
-64.79
-22.58
15.16
46.30
70.37
87.89
99.66
106.43
108.90
107.88
104.41
99.73
95.00
91.14
88.58
87.32
87.05
87.45
88.21
89.13
89.93
90.17
89.26
86.56
81.71
74.74
66.17
56.74
47.15
37.75
28.36
18.48
7.58
-4.54
-17.55
-30.70
-43.06
-53.98
-63.40
-71.99
-81.08
-92.22
-106.65
-124.53
-144.45
-163.23
-176.44
-179.59
-169.62
-145.98
-111.08
-69.48
-26.57
13.04
46.41
72.52
91.64
104.55
112.02
114.63
113.01
108.11
101.23
93.89
87.45
82.78
80.14
79.22
79.32
79.71
79.75
79.04
77.43
74.85
71.29
66.65
60.73
53.26
44.01
32.91
20.18
6.35
-7.82
-21.52
-34.12
-45.37
-55.52
-65.31
-75.76
-88.07
-103.21
-121.44
-141.84
-161.93
-177.85
-185.13
-180.10
-161.21
-129.83
-89.93
-46.90
-5.88
29.56
57.96
79.50
95.11
105.62
111.40
112.64
109.80
103.94
96.74
89.99
85.05
82.35
81.36
80.96
79.98
77.78
74.39
70.49
66.76
63.46
60.11
55.67
48.90
39.01
26.06
10.95
-4.90
-20.10
-33.77
-45.80
-56.69
-67.33
-78.79
-92.11
-108.12
-127.04
-147.89
-168.12
-183.72
-190.15
-183.82
-163.54
-131.06
-90.69
-47.84
-7.33
27.75
56.31
78.67
95.65
107.88
115.65
119.11
118.71
115.43
110.64
105.70
101.58
98.57
96.25
93.86
90.75
86.69
82.00
77.29
73.09
69.36
65.45
60.24
52.62
41.94
28.38
12.87
-3.21
-18.50
-32.15
-44.04
-54.81
-65.54
-77.58
-92.19
-110.10
-131.07
-153.38
-173.73
-187.71
-191.01
-180.72
-156.62
-121.32
-79.52
-36.53
3.27
37.31
64.88
86.51
103.05
115.14
122.99
126.74
126.70
123.62
118.63
112.97
107.65
103.19
99.60
96.55
93.63
90.48
86.95
83.00
78.58
73.59
67.84
61.04
52.89
43.16
31.73
18.75
4.68
-9.79
-23.94
-37.17
-49.29
-60.48
-71.29
-82.56
-95.23
-110.15
-127.66
-147.10
-166.39
-182.16
-190.32
-187.36
-171.53
-143.64
-106.89
-65.88
-25.19
11.78
43.34
69.28
90.15
106.53
118.73
126.84
131.06
131.89
130.26
127.19
123.53
119.75
115.94
112.10
108.30
104.83
102.05
100.06
98.51
96.59
93.26
87.67
79.56
69.37
58.05
46.73
36.17
26.49
17.20
7.47
-3.41
-15.64
-28.81
-42.08
-54.55
-65.61
-75.26
-84.00
-92.87
-103.18
-116.07
-131.95
-149.87
-167.22
-180.07
-184.18
-176.40
-155.96
-124.78
-86.89
-47.09
-9.46
23.53
51.12
73.68
91.89
106.19
116.69
123.34
126.34
126.27
124.05
120.70
117.11
113.82
111.01
108.60
106.43
104.38
102.43
100.55
98.59
96.25
93.14
88.89
83.32
76.47
68.59
60.01
51.13
42.23
33.56
25.25
17.38
9.90
2.61
-4.79
-12.65
-21.20
-30.48
-40.24
-50.05
-59.42
-68.03
-75.84
-83.19
-90.72
-99.29
-109.85
-122.99
-138.49
-154.88
-169.28
-177.98
-177.45
-165.64
-142.81
-111.57
-76.02
-40.46
-8.16
19.11
41.01
57.95
70.53
79.27
84.65
87.25
87.81
87.19
86.11
85.04
84.15
83.41
82.72
82.05
81.51
81.25
81.35
81.68
81.88
81.43
79.74
76.48
71.59
65.40
58.46
51.28
44.19
37.22
30.26
23.18
16.02
9.01
2.39
-3.73
-9.56
-15.54
-22.11
-29.52
-37.63
-46.01
-54.15
-61.65
-68.45
-74.81
-81.25
-88.41
-96.99
-107.50
-120.04
-133.84
-147.02
-156.69
-159.65
-153.43
-137.27
-112.57
-82.50
-50.97
-21.41
4.01
24.58
40.64
52.91
61.97
68.15
71.62
72.70
71.93
70.05
67.82
65.84
64.44
63.59
63.18
62.98
62.85
62.72
62.57
62.30
61.69
60.40
58.13
54.72
50.20
44.81
38.89
32.75
26.58
20.48
14.47
8.57
2.86
-2.63
-7.92
-13.22
-18.84
-25.05
-31.92
-39.26
-46.62
-53.52
-59.70
-65.20
-70.40
-75.97
-82.65
-91.09
-101.68
-114.09
-127.03
-138.15
-144.50
-143.33
-133.08
-114.08
-88.50
-59.65
-30.98
-5.08
16.65
33.87
46.85
55.91
61.38
63.62
63.14
60.78
57.47
54.12
51.38
49.59
48.72
48.60
49.00
49.74
50.68
51.68
52.51
52.84
52.25
50.48
47.42
43.27
38.45
33.33
28.19
22.96
17.39
11.28
4.62
-2.24
-8.85
-14.86
-20.31
-25.60
-31.28
-37.75
-45.05
-52.75
-60.30
-67.19
-73.21
-78.46
-83.34
-88.49
-94.72
-102.92
-113.66
-126.70
-140.55
-152.42
-158.83
-156.72
-144.59
-123.16
-95.19
-64.53
-34.88
-8.82
12.57
29.32
42.04
51.24
57.29
60.39
60.95
59.67
57.44
55.18
53.51
52.67
52.53
52.84
53.34
53.95
54.66
55.40
56.03
56.29
55.87
54.55
52.20
48.80
44.38
39.02
32.86
26.13
19.09
12.05
5.24
-1.21
-7.42
-13.61
-20.13
-27.28
-35.24
-43.93
-53.05
-62.17
-70.87
-78.92
-86.42
-93.82
-101.97
-111.89
-124.45
-139.79
-156.85
-173.05
-184.71
-188.00
-180.23
-160.92
-131.97
-97.19
-60.94
-27.01
2.24
25.91
44.14
57.44
66.38
71.41
73.05
72.08
69.58
66.74
64.62
63.79
64.22
65.43
66.78
67.79
68.42
68.94
69.67
70.68
71.64
71.76
70.24
66.47
60.32
52.21
42.96
33.54
24.74
16.96
9.96
3.07
-4.62
-13.89
-24.94
-37.35
-50.14
-62.21
-72.77
-81.67
-89.56
-97.62
-107.38
-120.16
-136.60
-156.03
-176.23
-193.53
-203.62
-202.68
-188.74
-162.34
-126.48
-85.75
-44.90
-7.68
23.74
48.68
67.45
80.74
89.23
93.58
94.60
93.32
91.00
88.88
87.79
87.93
88.98
90.30
91.33
91.99
92.55
93.41
94.65
95.80
95.86
93.66
88.47
80.34
70.11
59.12
48.62
39.19
30.63
22.05
12.34
0.78
-12.66
-27.22
-41.68
-54.86
-66.13
-75.61
-84.23
-93.49
-104.99
-120.01
-138.69
-159.60
-179.47
-193.70
-197.51
-187.55
-163.13
-126.67
-82.94
-37.55
4.72
40.86
69.75
91.52
106.74
116.01
119.98
119.56
116.14
111.40
106.96
103.90
102.56
102.56
103.23
103.94
104.42
104.78
105.28
105.98
106.52
106.06
103.55
98.14
89.67
78.74
66.59
54.57
43.64
34.01
25.10
15.89
5.38
-6.93
-20.78
-35.27
-49.19
-61.50
-71.76
-80.38
-88.55
-97.98
-110.39
-126.90
-147.31
-169.55
-189.67
-202.56
-203.33
-189.02
-159.69
-118.66
-71.47
-24.12
18.53
53.75
80.82
100.30
113.15
120.24
122.34
120.40
115.76
110.04
104.74
100.87
98.74
98.00
98.01
98.24
98.52
98.92
99.51
100.04
99.78
97.76
93.15
85.70
75.92
64.84
53.61
42.92
32.71
22.37
11.09
-1.61
-15.58
-30.10
-44.19
-57.07
-68.44
-78.64
-88.57
-99.51
-112.83
-129.41
-148.97
-169.48
-187.05
-196.75
-193.99
-176.29
-144.37
-102.10
-55.29
-9.82
29.97
62.00
86.09
103.09
113.93
119.34
119.88
116.46
110.36
103.26
96.71
91.81
88.97
87.99
88.33
89.33
90.46
91.25
91.28
90.16
87.51
83.04
76.69
68.58
59.03
48.37
36.81
24.40
11.14
-2.87
-17.27
-31.49
-44.85
-56.86
-67.38
-76.81
-85.99
-96.14
-108.55
-124.12
-142.67
-162.35
-179.50
-189.35
-187.41
-171.14
-141.07
-100.82
-55.93
-12.18
26.11
56.83
79.85
96.15
106.95
113.11
115.16
113.62
109.25
103.25
96.97
91.65
88.02
86.17
85.55
85.33
84.68
83.08
80.42
76.86
72.60
67.73
62.07
55.25
46.84
36.55
24.36
10.63
-3.96
-18.59
-32.51
-45.20
-56.52
-66.77
-76.53
-86.72
-98.43
-112.71
-130.09
-149.97
-170.02
-186.31
-194.15
-189.52
-170.72
-139.04
-98.56
-54.77
-12.83
23.75
53.52
76.68
94.13
106.81
115.30
119.94
121.14
119.49
115.85
111.13
106.20
101.69
97.92
94.96
92.63
90.57
88.41
85.83
82.54
78.35
73.12
66.75
59.22
50.55
40.73
29.77
17.67
4.51
-9.47
-23.80
-37.90
-51.21
-63.36
-74.39
-84.78
-95.44
-107.56
-122.26
-140.03
-160.04
-179.74
-195.01
-201.23
-194.69
-174.08
-141.12
-100.06
-56.32
-14.78
21.37
50.94
74.21
92.11
105.51
115.00
120.97
123.89
124.40
123.17
120.79
117.65
113.95
109.80
105.45
101.21
97.41
94.25
91.57
88.85
85.31
80.19
73.06
63.94
53.34
42.06
30.76
19.78
9.01
-2.00
-13.70
-26.22
-39.21
-51.98
-63.78
-74.17
-83.31
-92.03
-101.67
-113.71
-129.15
-147.83
-167.83
-185.47
-196.10
-195.38
-180.96
-153.38
-116.04
-74.06
-32.58
4.66
35.95
61.30
81.58
97.62
109.89
118.51
123.65
125.81
125.73
124.28
122.06
119.29
115.89
111.76
107.06
102.36
98.39
95.63
94.01
92.75
90.60
86.35
79.38
69.85
58.72
47.24
36.46
26.85
18.12
9.47
-0.03
-10.95
-23.24
-36.22
-48.90
-60.38
-70.24
-78.72
-86.71
-95.50
-106.54
-120.90
-138.67
-158.42
-177.03
-190.15
-193.39
-183.77
-160.90
-127.20
-87.21
-46.04
-7.91
24.74
51.29
72.27
88.57
100.86
109.47
114.58
116.53
115.92
113.61
110.49
107.30
104.37
101.71
99.06
96.22
93.17
90.18
87.63
85.74
84.32
82.74
80.07
75.48
68.51
59.30
48.55
37.25
26.40
16.69
8.35
1.04
-5.96
-13.49
-22.19
-32.19
-43.07
-54.07
-64.34
-73.38
-81.23
-88.38
-95.70
-104.21
-114.92
-128.43
-144.50
-161.48
-176.23
-184.72
-183.18
-169.53
-144.31
-110.59
-72.96
-35.98
-2.93
24.66
46.74
63.92
76.84
85.85
91.21
93.34
92.97
91.05
88.49
86.00
83.93
82.39
81.27
80.50
79.96
79.55
79.14
78.52
77.43
75.61
72.75
68.64
63.09
56.08
47.74
38.45
28.72
19.11
9.99
1.47
-6.60
-14.50
-22.46
-30.51
-38.46
-45.97
-52.68
-58.37
-63.08
-67.07
-70.86
-75.15
-80.85
-88.89
-100.01
-114.26
-130.56
-146.42
-158.29
-162.38
-155.95
-138.28
-111.06
-77.92
-43.23
-10.81
16.97
39.31
56.57
69.49
78.71
84.58
87.36
87.46
85.61
82.78
79.93
77.73
76.43
75.88
75.68
75.47
75.04
74.41
73.69
72.94
72.02
70.60
68.14
64.22
58.60
51.36
42.93
33.91
24.91
16.48
8.86
2.01
-4.37
-10.80
-17.78
-25.64
-34.39
-43.62
-52.77
-61.26
-68.78
-75.43
-81.73
-88.45
-96.51
-106.71
-119.45
-134.29
-149.64
-162.70
-170.01
-168.40
-156.17
-133.75
-103.68
-69.86
-36.34
-6.25
18.72
38.20
52.62
62.68
69.01
72.18
72.81
71.67
69.66
67.63
66.16
65.47
65.38
65.51
65.52
65.28
64.86
64.47
64.19
63.92
63.24
61.65
58.64
53.89
47.42
39.59
31.01
22.42
14.42
7.33
1.03
-4.99
-11.44
-18.90
-27.57
-37.15
-46.93
-56.16
-64.34
-71.41
-77.82
-84.27
-91.67
-100.87
-112.57
-126.85
-142.84
-158.35
-170.09
-174.39
-168.37
-151.07
-123.95
-90.50
-55.08
-21.68
7.14
30.35
48.12
61.17
70.14
75.45
77.42
76.57
73.76
70.10
66.71
64.34
63.18
62.89
62.85
62.60
61.99
61.26
60.73
60.57
60.51
59.98
58.26
54.79
49.41
42.39
34.41
26.24
18.51
11.51
5.02
-1.51
-8.81
-17.35
-27.18
-37.77
-48.35
-58.13
-66.68
-74.11
-80.96
-88.07
-96.41
-106.95
-120.28
-136.21
-153.22
-168.38
-177.80
-177.74
-166.02
-142.85
-110.92
-74.49
-37.98
-4.78
23.24
45.56
62.41
74.16
81.21
84.00
83.31
80.25
76.17
72.27
69.31
67.49
66.55
65.98
65.42
64.84
64.48
64.69
65.52
66.55
66.85
65.36
61.27
54.46
45.61
35.95
26.75
18.75
11.91
5.44
-1.81
-10.70
-21.39
-33.25
-45.18
-56.12
-65.52
-73.59
-81.22
-89.73
-100.48
-114.40
-131.46
-150.33
-168.10
-180.82
-184.41
-175.95
-154.92
-123.43
-85.68
-46.63
-10.50
20.12
44.44
62.82
76.01
84.62
88.98
89.44
86.67
81.82
76.37
71.67
68.69
67.72
68.41
70.00
71.62
72.54
72.34
70.91
68.37
64.86
60.51
55.27
48.92
41.14
31.68
20.57
8.16
-4.84
-17.65
-29.64
-40.56
-50.55
-60.12
-69.93
-80.76
-93.41
-108.44
-125.80
-144.20
-160.97
-172.29
-174.23
-164.12
-141.64
-109.08
-70.67
-31.22
5.25
36.32
61.10
79.68
92.45
99.69
101.72
99.13
93.11
85.38
77.82
72.00
68.66
67.71
68.31
69.32
69.79
69.24
67.63
65.26
62.45
59.27
55.47
50.42
43.45
34.05
22.19
8.37
-6.41
-21.06
-34.67
-46.78
-57.57
-67.65
-78.00
-89.85
-104.28
-121.92
-142.27
-163.25
-181.15
-191.37
-189.85
-174.44
-145.90
-107.70
-64.93
-22.71
15.23
47.00
72.32
91.75
105.96
115.32
120.10
120.72
118.08
113.49
108.48
104.27
101.51
100.07
99.28
98.28
96.44
93.62
90.12
86.38
82.64
78.64
73.74
66.99
57.62
45.32
30.42
13.88
-3.03
-19.05
-33.41
-45.96
-57.26
-68.40
-80.75
-95.61
-113.82
-135.16
-158.02
-179.15
-194.19
-198.74
-189.73
-166.61
-131.69
-89.50
-45.41
-4.03
31.73
60.99
84.20
102.37
116.27
126.17
132.07
134.09
132.78
129.19
124.62
120.21
116.61
113.82
111.41
108.80
105.54
101.57
97.05
92.21
87.06
81.34
74.52
65.93
55.08
41.82
26.51
10.03
-6.49
-21.99
-35.82
-47.98
-59.07
-70.06
-82.09
-96.16
-112.93
-132.44
-153.68
-174.24
-190.50
-198.25
-193.96
-176.06
-145.64
-106.30
-62.98
-20.45
17.89
50.47
77.20
98.70
115.60
128.21
136.65
141.12
142.09
140.39
136.92
132.55
127.89
123.27
118.91
114.97
111.71
109.25
107.50
105.97
103.83
100.07
93.93
85.17
74.28
62.26
50.19
38.83
28.23
17.87
6.90
-5.27
-18.69
-32.78
-46.61
-59.28
-70.40
-80.22
-89.69
-100.19
-113.20
-129.61
-149.10
-169.64
-187.55
-198.21
-197.45
-182.94
-155.16
-117.35
-74.42
-31.49
7.58
40.78
67.83
89.35
106.08
118.45
126.63
130.78
131.47
129.65
126.49
123.07
120.05
117.60
115.56
113.62
111.62
109.53
107.45
105.40
103.23
100.59
97.05
92.22
85.90
78.07
68.97
58.97
48.58
38.30
28.54
19.51
11.15
3.09
-5.19
-14.18
-24.11
-34.84
-45.90
-56.68
-66.66
-75.55
-83.47
-90.91
-98.71
-107.95
-119.69
-134.51
-151.94
-169.99
-185.22
-193.44
-191.05
-176.27
-149.91
-115.17
-76.58
-38.62
-4.52
24.21
47.47
65.90
80.18
90.79
97.98
102.00
103.34
102.72
100.94
98.73
96.60
94.75
93.28
92.25
91.71
91.70
92.10
92.53
92.40
91.07
88.09
83.38
77.23
70.20
62.84
55.50
48.30
41.12
33.79
26.24
18.56
10.91
3.44
-3.85
-11.15
-18.75
-26.93
-35.77
-45.07
-54.42
-63.38
-71.57
-78.91
-85.56
-92.03
-99.11
-107.75
-118.76
-132.22
-147.03
-160.65
-169.53
-170.12
-160.11
-139.40
-110.22
-76.43
-42.27
-11.14
15.06
35.86
51.71
63.32
71.31
76.20
78.46
78.72
77.72
76.17
74.62
73.29
72.17
71.17
70.24
69.51
69.20
69.48
70.28
71.18
71.52
70.63
68.08
63.83
58.22
51.78
45.02
38.25
31.54
24.89
18.30
11.86
5.68
-0.21
-5.94
-11.83
-18.21
-25.35
-33.20
-41.49
-49.76
-57.58
-64.68
-71.09
-77.13
-83.34
-90.52
-99.44
-110.62
-123.87
-137.87
-150.12
-157.38
-156.61
-146.08
-126.02
-98.78
-67.98
-37.40
-9.99
12.75
30.55
43.95
53.68
60.34
64.31
65.96
65.69
64.07
61.74
59.35
57.40
56.12
55.47
55.27
55.28
55.34
55.45
55.60
55.71
55.51
54.62
52.66
49.38
44.80
39.15
32.82
26.22
19.74
13.63
8.00
2.82
-2.19
-7.42
-13.26
-20.00
-27.61
-35.83
-44.21
-52.29
-59.70
-66.45
-72.79
-79.34
-86.91
-96.36
-108.15
-121.92
-136.18
-148.32
-155.19
-153.97
-143.25
-123.53
-97.19
-67.77
-38.81
-12.97
8.46
25.36
38.30
47.93
54.68
58.72
60.21
59.50
57.33
54.60
52.19
50.68
50.16
50.29
50.65
50.87
50.90
50.90
51.06
51.40
51.61
51.13
49.38
45.88
40.57
33.74
26.08
18.36
11.27
5.09
-0.36
-5.76
-11.87
-19.29
-28.08
-37.79
-47.56
-56.56
-64.34
-70.98
-77.11
-83.66
-91.60
-101.70
-114.27
-128.78
-143.66
-156.30
-163.49
-162.36
-151.35
-130.87
-103.28
-72.19
-41.31
-13.50
9.65
27.82
41.36
50.86
56.84
59.83
60.46
59.51
57.89
56.36
55.49
55.40
55.91
56.62
57.19
57.48
57.65
58.01
58.78
59.86
60.68
60.41
58.22
53.67
46.99
38.96
30.65
22.90
16.07
9.82
3.37
-4.14
-13.23
-23.81
-35.21
-46.48
-56.75
-65.59
-73.23
-80.46
-88.41
-98.22
-110.71
-125.94
-142.91
-159.42
-172.32
-178.23
-174.47
-159.95
-135.65
-104.33
-69.84
-35.95
-5.53
19.90
39.95
54.97
65.51
72.05
75.09
75.22
73.33
70.49
67.74
65.81
64.94
64.97
65.59
66.60
68.02
69.98
72.40
74.75
76.13
75.50
72.20
66.25
58.31
49.47
40.63
32.29
24.25
15.92
6.63
-4.04
-16.02
-28.81
-41.63
-53.71
-64.54
-74.08
-82.86
-91.91
-102.62
-116.21
-133.08
-152.18
-170.74
-184.68
-189.69
-182.65
-162.78
-132.08
-94.55
-54.99
-17.57
15.04
41.77
62.61
78.03
88.51
94.42
96.29
94.91
91.38
86.92
82.66
79.35
77.35
76.60
76.75
77.28
77.63
77.36
76.19
74.01
70.83
66.65
61.46
55.11
47.46
38.31
27.61
15.44
2.08
-12.02
-26.31
-40.24
-53.45
-65.84
-77.73
-89.84
-103.21
-118.93
-137.54
-158.39
-179.17
-195.99
-204.24
-200.02
-181.66
-150.47
-110.41
-66.80
-24.62
12.73
43.89
68.98
88.70
103.58
113.71
119.04
119.84
116.94
111.72
105.76
100.40
96.40
93.81
92.14
90.71
88.94
86.54
83.51
79.95
75.86
71.01
64.89
56.89
46.48
33.43
17.97
0.78
-17.21
-35.03
-51.93
-67.54
-81.97
-95.77
-109.84
-125.30
-143.04
-163.14
-184.27
-203.44
-216.45
-218.96
-207.89
-182.57
-145.00
-99.31
-50.49
-3.16
39.36
75.35
104.41
127.00
143.93
156.02
163.92
168.15
169.18
167.65
164.39
160.37
156.48
153.28
150.85
148.89
146.81
144.03
140.12
134.90
128.43
120.87
112.37
102.87
92.10
79.67
65.32
49.16
31.76
14.04
-3.06
-18.89
-33.38
-46.99
-60.58
-75.19
-91.84
-111.29
-133.63
-157.79
-181.16
-199.68
-208.71
-204.38
-185.07
-152.13
-109.65
-63.09
-17.66
23.05
57.45
85.55
108.02
125.44
138.05
145.88
149.30
149.15
146.73
143.41
140.15
137.23
134.36
131.06
127.08
122.66
118.44
115.06
112.76
111.02
108.71
104.42
97.15
86.62
73.55
59.36
45.60
33.36
22.82
13.22
3.25
-8.26
-21.79
-36.88
-52.28
-66.61
-78.86
-88.89
-97.50
-106.16
-116.64
-130.50
-148.49
-169.96
-192.48
-211.84
-223.00
-221.43
-204.67
-173.40
-131.29
-83.87
-36.81
5.64
41.37
70.20
92.99
110.72
124.02
133.15
138.34
140.08
139.19
136.72
133.65
130.72
128.30
126.45
125.03
123.76
122.39
120.65
118.37
115.40
111.61
106.86
100.91
93.53
84.58
74.16
62.64
50.65
38.88
27.88
17.88
8.74
-0.03
-9.10
-19.03
-30.10
-42.15
-54.62
-66.77
-77.97
-87.91
-96.74
-105.03
-113.65
-123.69
-136.15
-151.64
-169.73
-188.49
-204.44
-213.10
-210.43
-194.23
-165.07
-126.31
-82.97
-40.11
-1.49
31.07
57.39
78.14
94.13
105.85
113.59
117.67
118.69
117.51
115.16
112.55
110.31
108.66
107.52
106.64
105.81
104.91
103.95
102.88
101.57
99.73
96.97
92.91
87.25
79.91
71.06
61.07
50.48
39.90
29.91
20.81
12.56
4.74
-3.30
-12.21
-22.30
-33.40
-44.95
-56.17
-66.42
-75.44
-83.38
-90.81
-98.50
-107.41
-118.47
-132.33
-148.85
-166.55
-182.47
-192.57
-192.85
-180.78
-156.33
-122.16
-82.83
-43.29
-7.54
22.25
45.64
63.31
76.31
85.48
91.42
94.62
95.72
95.44
94.52
93.52
92.69
91.95
91.13
90.09
88.85
87.56
86.40
85.44
84.54
83.32
81.33
78.15
73.55
67.58
60.55
52.84
44.78
36.57
28.25
19.93
11.74
3.90
-3.39
-10.18
-16.77
-23.65
-31.26
-39.76
-48.93
-58.25
-67.21
-75.46
-83.03
-90.33
-98.14
-107.47
-119.26
-133.88
-150.49
-166.73
-178.90
-182.95
-175.92
-157.01
-128.13
-93.23
-56.99
-23.39
5.21
28.11
45.73
58.83
68.03
73.74
76.36
76.48
74.98
72.80
70.76
69.36
68.68
68.51
68.55
68.55
68.38
68.06
67.68
67.27
66.77
65.96
64.48
61.88
57.78
51.99
44.72
36.50
28.08
20.15
13.05
6.60
0.31
-6.45
-14.15
-22.84
-32.20
-41.70
-50.78
-59.09
-66.56
-73.40
-80.05
-87.17
-95.51
-105.85
-118.64
-133.54
-149.04
-162.36
-169.98
-168.71
-156.81
-134.68
-104.93
-71.47
-38.36
-8.74
15.72
34.64
48.48
57.92
63.64
66.26
66.46
65.07
62.98
60.94
59.38
58.35
57.57
56.68
55.54
54.27
53.24
52.77
52.84
52.98
52.35
50.16
45.95
39.90
32.68
25.26
18.41
12.37
6.81
0.93
-6.10
-14.73
-24.79
-35.55
-46.02
-55.36
-63.21
-69.83
-76.01
-82.84
-91.51
-102.83
-116.84
-132.38
-146.94
-157.07
-159.32
-151.42
-133.10
-106.40
-74.89
-42.52
-12.57
13.02
33.60
49.21
60.17
66.76
69.33
68.54
65.44
61.32
57.41
54.53
52.93
52.44
52.68
53.34
54.31
55.61
57.17
58.71
59.64
59.25
56.97
52.59
46.38
38.98
31.17
23.53
16.26
9.04
1.29
-7.62
-17.94
-29.48
-41.47
-52.97
-63.18
-71.83
-79.33
-86.79
-95.66
-107.30
-122.35
-140.06
-158.10
-172.78
-179.99
-176.45
-160.91
-134.60
-100.94
-64.41
-29.23
1.62
26.80
46.28
60.69
70.69
76.74
79.16
78.38
75.22
70.76
66.23
62.62
60.47
59.78
60.14
60.98
61.75
62.04
61.60
60.30
58.06
54.88
50.75
45.66
39.54
32.29
23.86
14.27
3.76
-7.28
-18.38
-29.09
-39.17
-48.59
-57.62
-66.82
-76.96
-88.94
-103.42
-120.37
-138.58
-155.37
-167.02
-169.72
-160.82
-139.88
-109.03
-72.30
-34.44
0.49
30.04
53.39
70.86
83.08
90.53
93.45
92.24
87.72
81.32
74.77
69.69
67.02
66.84
68.44
70.67
72.40
72.90
71.97
69.81
66.78
63.09
58.65
53.04
45.74
36.36
24.89
11.78
-2.18
-16.10
-29.29
-41.37
-52.40
-62.74
-72.99
-83.93
-96.52
-111.58
-129.39
-149.09
-168.24
-183.02
-189.13
-183.13
-163.79
-132.68
-93.71
-51.97
-12.13
22.64
51.02
73.11
89.66
101.41
108.79
112.08
111.77
108.76
104.34
99.87
96.47
94.67
94.35
94.92
95.59
95.68
94.76
92.62
89.23
84.64
78.90
72.02
63.90
54.36
43.20
30.34
16.01
0.75
-14.63
-29.32
-42.80
-54.94
-66.16
-77.29
-89.50
-103.96
-121.50
-141.99
-163.75
-183.41
-196.48
-198.56
-186.85
-161.24
-124.47
-81.30
-36.97
4.16
39.45
68.09
90.41
107.23
119.39
127.42
131.79
132.97
131.57
128.33
124.06
119.50
115.26
111.77
109.18
107.44
106.28
105.21
103.61
100.86
96.51
90.32
82.42
73.12
62.79
51.72
40.00
27.49
14.03
-0.39
-15.53
-30.83
-45.59
-59.23
-71.54
-82.85
-94.07
-106.48
-121.38
-139.49
-160.29
-181.50
-199.19
-208.63
-205.70
-188.33
-157.39
-116.51
-70.89
-25.77
15.04
49.61
77.72
99.97
117.15
129.71
137.91
142.10
142.89
141.26
138.19
134.53
130.67
126.66
122.38
117.89
113.56
109.97
107.52
106.07
104.77
102.28
97.29
89.10
77.96
65.00
51.65
39.11
27.78
17.23
6.47
-5.48
-18.97
-33.61
-48.34
-61.96
-73.64
-83.32
-91.72
-100.19
-110.36
-123.64
-140.72
-160.99
-182.14
-200.23
-210.47
-208.60
-192.42
-162.60
-122.71
-77.91
-33.40
7.02
41.53
69.94
92.89
111.06
124.81
134.31
139.80
141.86
141.36
139.29
136.44
133.23
129.70
125.71
121.17
116.26
111.42
107.18
103.81
101.04
98.04
93.66
86.92
77.42
65.66
52.84
40.41
29.42
20.02
11.46
2.51
-7.97
-20.35
-34.13
-48.17
-61.22
-72.43
-81.66
-89.50
-97.08
-105.81
-117.07
-131.73
-149.55
-168.69
-185.61
-195.84
-195.21
-181.40
-154.84
-118.67
-77.68
-36.76
0.46
32.13
58.00
78.65
94.76
106.82
115.04
119.64
121.05
120.01
117.47
114.36
111.46
109.18
107.55
106.35
105.31
104.18
102.83
101.15
98.99
96.09
92.20
87.12
80.88
73.65
65.69
57.23
48.44
39.41
30.23
21.05
12.03
3.32
-5.08
-13.36
-21.81
-30.80
-40.47
-50.74
-61.17
-71.21
-80.36
-88.47
-95.88
-103.44
-112.36
-123.77
-138.23
-155.11
-172.24
-186.13
-192.67
-188.45
-171.98
-144.27
-108.69
-69.81
-32.11
1.23
28.67
50.15
66.34
78.08
86.07
90.88
93.19
93.78
93.50
93.02
92.66
92.37
91.80
90.68
88.96
86.97
85.26
84.27
84.02
84.04
83.44
81.39
77.39
71.52
64.42
56.96
49.83
43.29
37.09
30.72
23.69
15.84
7.46
-0.91
-8.71
-15.68
-22.03
-28.30
-35.07
-42.69
-51.05
-59.72
-68.07
-75.65
-82.32
-88.42
-94.60
-101.77
-110.91
-122.73
-137.26
-153.41
-168.69
-179.59
-182.43
-174.58
-155.45
-126.78
-92.12
-55.76
-21.45
8.38
32.74
51.70
65.80
75.62
81.63
84.34
84.47
82.93
80.70
78.58
76.96
75.87
75.09
74.42
73.82
73.47
73.57
74.10
74.77
75.00
74.22
72.01
68.29
63.30
57.40
50.93
44.03
36.75
29.05
21.03
12.92
5.08
-2.24
-9.01
-15.53
-22.30
-29.84
-38.39
-47.79
-57.53
-66.94
-75.48
-82.93
-89.52
-95.86
-102.83
-111.48
-122.57
-136.08
-150.82
-164.21
-172.74
-172.94
-162.64
-141.73
-112.44
-78.58
-44.36
-13.22
12.86
33.35
48.69
59.66
66.97
71.17
72.71
72.16
70.26
67.82
65.56
63.98
63.18
62.97
63.00
63.01
62.88
62.72
62.68
62.79
62.80
62.22
60.45
57.02
51.82
45.06
37.30
29.21
21.38
14.15
7.51
1.13
-5.49
-12.89
-21.40
-30.98
-41.20
-51.42
-60.98
-69.45
-76.82
-83.49
-90.16
-97.79
-107.34
-119.53
-134.30
-150.35
-165.01
-174.62
-175.60
-165.68
-144.85
-115.45
-81.42
-46.97
-15.41
11.38
32.89
49.32
61.03
68.35
71.60
71.43
68.92
65.44
62.27
60.26
59.68
60.22
61.23
62.15
62.74
63.09
63.49
64.18
65.07
65.66
65.20
62.94
58.47
51.91
43.90
35.37
27.22
19.94
13.42
7.11
0.18
-8.06
-17.85
-28.89
-40.45
-51.58
-61.56
-70.18
-77.85
-85.55
-94.60
-106.23
-121.12
-138.87
-157.64
-174.25
-184.71
-185.35
-174.09
-151.13
-119.10
-82.18
-44.89
-10.81
17.98
40.90
58.27
70.71
78.73
82.74
83.25
81.04
77.19
72.87
69.05
66.32
64.77
64.20
64.29
64.82
65.69
66.84
68.01
68.68
68.11
65.66
61.02
54.41
46.46
37.91
29.25
20.49
11.25
1.05
-10.31
-22.53
-34.96
-46.82
-57.52
-66.99
-75.70
-84.59
-94.90
-107.75
-123.66
-141.95
-160.45
-175.60
-183.31
-180.17
-164.66
-137.80
-102.85
-64.32
-26.56
7.20
35.31
57.41
73.82
85.03
91.41
93.30
91.31
86.46
80.18
74.02
69.30
66.76
66.46
67.76
69.68
71.21
71.67
70.77
68.59
65.33
61.09
55.79
49.15
40.89
30.89
19.31
6.63
-6.49
-19.45
-31.88
-43.63
-54.81
-65.75
-76.92
-89.03
-102.98
-119.58
-138.96
-159.92
-179.58
-193.79
-198.21
-189.77
-167.86
-134.62
-94.28
-51.71
-11.17
24.59
54.34
77.94
95.70
107.93
114.94
117.18
115.40
110.75
104.60
98.34
93.15
89.70
88.08
87.80
88.06
88.05
87.15
85.17
82.25
78.64
74.39
69.23
62.58
53.85
42.67
29.16
13.91
-2.19
-18.23
-33.54
-47.77
-60.92
-73.32
-85.64
-98.90
-114.29
-132.71
-154.05
-176.54
-196.62
-209.57
-210.86
-197.70
-170.08
-130.89
-85.07
-38.00
5.87
43.80
74.85
99.31
117.98
131.62
140.78
145.86
147.30
145.77
142.11
137.38
132.55
128.36
125.20
123.05
121.62
120.42
118.87
116.41
112.56
106.97
99.54
90.38
79.80
68.18
55.82
42.82
29.11
14.58
-0.75
-16.60
-32.38
-47.42
-61.23
-73.76
-85.48
-97.47
-111.18
-127.96
-148.42
-171.62
-194.60
-212.73
-220.74
-214.45
-192.26
-155.90
-109.92
-60.19
-12.10
30.69
66.58
95.54
118.21
135.22
147.01
154.02
156.94
156.83
154.91
152.24
149.42
146.56
143.41
139.73
135.57
131.35
127.69
125.02
123.22
121.48
118.49
112.92
103.97
91.80
77.45
62.55
48.60
36.46
25.99
16.24
5.89
-6.09
-19.96
-35.18
-50.58
-64.93
-77.43
-88.02
-97.44
-107.09
-118.69
-133.78
-153.04
-175.57
-198.44
-216.94
-225.67
-220.23
-198.84
-163.09
-117.55
-68.25
-20.77
21.09
55.80
83.58
105.45
122.37
134.85
143.13
147.48
148.47
147.00
144.10
140.71
137.44
134.57
132.03
129.68
127.42
125.28
123.29
121.42
119.40
116.72
112.75
106.91
98.94
88.93
77.38
64.97
52.40
40.22
28.76
18.08
8.02
-1.82
-11.90
-22.63
-34.19
-46.36
-58.64
-70.38
-81.10
-90.70
-99.53
-108.30
-117.98
-129.61
-144.14
-161.95
-182.28
-202.71
-219.22
-226.99
-221.93
-202.19
-169.08
-126.71
-80.64
-36.09
3.35
36.20
62.61
83.42
99.52
111.51
119.85
125.07
127.88
129.01
129.08
128.45
127.19
125.29
122.83
120.10
117.56
115.63
114.43
113.63
112.52
110.22
106.04
99.75
91.66
82.49
73.09
64.08
55.69
47.73
39.77
31.45
22.68
13.75
5.09
-2.92
-10.31
-17.47
-25.07
-33.75
-43.72
-54.76
-66.22
-77.28
-87.34
-96.21
-104.25
-112.27
-121.46
-133.05
-147.69
-164.88
-182.48
-196.83
-203.53
-198.86
-181.13
-151.51
-113.73
-72.90
-33.88
0.03
27.52
48.90
65.23
77.54
86.47
92.39
95.66
96.83
96.64
95.81
94.84
93.96
93.12
92.24
91.31
90.48
89.93
89.74
89.75
89.59
88.70
86.56
82.82
77.38
70.39
62.19
53.22
43.92
34.72
25.97
17.91
10.55
3.65
-3.23
-10.59
-18.80
-27.88
-37.47
-47.00
-55.87
-63.78
-70.80
-77.35
-84.14
-91.99
-101.67
-113.74
-128.08
-143.51
-157.55
-166.81
-167.80
-158.26
-138.04
-109.31
-75.97
-42.30
-11.75
13.80
33.99
49.39
60.70
68.40
72.74
74.04
72.95
70.51
67.89
65.97
65.07
64.96
65.07
64.89
64.23
63.27
62.40
61.88
61.65
61.19
59.76
56.63
51.41
44.25
35.86
27.25
19.31
12.55
6.79
1.33
-4.73
-12.07
-20.86
-30.63
-40.54
-49.70
-57.52
-63.97
-69.55
-75.09
-81.55
-89.84
-100.46
-113.19
-126.76
-138.82
-146.24
-146.03
-136.31
-117.10
-90.46
-59.96
-29.48
-2.20
20.16
37.19
49.38
57.50
62.17
63.86
63.07
60.52
57.10
53.77
51.21
49.67
48.98
48.73
48.61
48.50
48.52
48.77
49.17
49.25
48.31
45.68
41.02
34.53
26.98
19.32
12.38
6.43
1.10
-4.43
-11.03
-19.19
-28.65
-38.61
-48.02
-56.09
-62.67
-68.31
-74.12
-81.35
-91.03
-103.45
-117.83
-132.12
-143.32
-148.18
-144.17
-130.46
-108.17
-80.23
-50.39
-22.10
2.25
21.61
35.97
45.88
51.91
54.63
54.51
52.17
48.37
43.91
39.58
35.93
33.31
31.76
31.15
31.24
31.69
32.16
32.33
31.95
30.81
28.83
25.96
22.24
17.67
12.18
5.71
-1.82
-10.34
-19.64
-29.29
-38.83
-47.84
-56.16
-63.92
-71.59
-79.88
-89.60
-101.38
-115.31
-130.50
-144.91
-155.56
-159.29
-153.75
-138.31
-114.37
-85.01
-53.97
-24.57
1.01
21.96
38.32
50.52
58.89
63.63
64.93
63.28
59.53
54.82
50.32
46.96
45.13
44.66
44.96
45.31
45.15
44.22
42.64
40.67
38.48
35.94
32.55
27.60
20.51
11.08
-0.30
-12.80
-25.42
-37.36
-48.28
-58.34
-68.11
-78.34
-89.82
-103.26
-119.07
-137.04
-155.86
-172.98
-184.87
-187.97
-179.85
-160.16
-130.95
-95.96
-59.45
-24.96
5.37
30.82
51.57
68.04
80.51
89.05
93.79
95.17
93.94
91.20
87.99
85.16
83.05
81.56
80.28
78.78
76.80
74.39
71.78
69.17
66.46
63.23
58.73
52.21
43.17
31.63
18.14
3.63
-10.89
-24.65
-37.32
-49.03
-60.32
-72.02
-85.08
-100.46
-118.74
-139.55
-161.10
-180.07
-192.19
-193.45
-181.50
-156.52
-121.37
-80.58
-39.01
-0.49
32.81
60.34
82.57
100.27
114.04
124.18
130.84
134.18
134.62
132.81
129.62
125.91
122.37
119.41
117.09
115.23
113.51
111.51
108.84
105.13
100.15
93.80
86.11
77.16
67.03
55.63
42.89
28.78
13.56
-2.26
-17.97
-32.84
-46.42
-58.65
-69.98
-81.31
-93.93
-109.23
-128.03
-149.95
-172.76
-192.43
-203.94
-202.86
-186.88
-156.78
-116.20
-70.51
-25.04
16.19
51.10
79.31
101.39
118.16
130.32
138.38
142.92
144.68
144.57
143.48
142.02
140.36
138.31
135.55
131.97
127.84
123.80
120.53
118.24
116.44
113.99
109.51
102.02
91.34
78.29
64.31
50.90
38.99
28.62
18.99
8.92
-2.58
-15.89
-30.60
-45.72
-60.03
-72.67
-83.42
-92.87
-102.37
-113.66
-128.34
-147.11
-169.00
-191.12
-208.91
-217.25
-212.11
-191.90
-158.22
-115.29
-68.64
-23.39
16.90
50.68
77.90
99.22
115.34
126.77
133.90
137.29
137.72
136.22
133.79
131.20
128.85
126.73
124.57
122.12
119.32
116.38
113.69
111.52
109.73
107.69
104.34
98.60
89.85
78.23
64.71
50.80
37.96
27.09
18.12
10.13
1.73
-8.28
-20.42
-34.26
-48.63
-62.14
-73.73
-83.13
-90.95
-98.49
-107.38
-119.16
-134.76
-153.99
-175.10
-194.74
-208.41
-211.67
-201.47
-177.33
-141.58
-98.75
-54.11
-12.22
24.02
53.49
76.39
93.47
105.49
113.13
117.02
118.02
117.10
115.17
112.95
110.76
108.60
106.24
103.59
100.75
98.05
95.84
94.30
93.25
92.08
89.90
85.79
79.16
70.00
59.03
47.42
36.39
26.72
18.39
10.61
2.20
-7.79
-19.62
-32.66
-45.68
-57.44
-67.16
-74.94
-81.66
-88.74
-97.78
-110.00
-125.75
-144.04
-162.34
-176.83
-183.34
-178.55
-161.18
-132.59
-96.45
-57.49
-20.18
12.39
38.88
59.34
74.47
85.11
91.88
95.31
96.01
94.80
92.60
90.26
88.34
86.96
85.87
84.70
83.14
81.26
79.38
77.95
77.19
76.79
75.95
73.61
68.90
61.59
52.26
42.06
32.24
23.63
16.30
9.57
2.43
-6.00
-16.05
-27.32
-38.96
-49.96
-59.59
-67.60
-74.35
-80.62
-87.55
-96.38
-108.08
-122.86
-139.60
-155.71
-167.43
-170.84
-163.17
-143.90
-115.02
-80.41
-44.60
-11.39
16.90
39.51
56.69
69.05
77.17
81.52
82.72
81.65
79.35
76.78
74.55
72.75
71.16
69.48
67.58
65.70
64.19
63.32
62.99
62.65
61.44
58.56
53.60
46.75
38.73
30.48
22.76
15.79
9.21
2.29
-5.71
-15.12
-25.69
-36.71
-47.31
-56.81
-65.00
-72.18
-79.18
-87.07
-96.94
-109.40
-124.12
-139.50
-152.63
-159.93
-158.18
-145.66
-122.89
-92.63
-59.00
-26.13
2.84
26.44
44.56
57.82
67.00
72.62
75.03
74.61
72.01
68.10
63.86
60.16
57.49
55.94
55.29
55.15
55.15
54.99
54.52
53.58
52.02
49.59
46.06
41.24
35.11
27.76
19.39
10.19
0.31
-10.03
-20.58
-30.93
-40.68
-49.52
-57.43
-64.68
-71.89
-79.95
-89.74
-101.86
-116.05
-130.79
-143.36
-150.28
-148.36
-135.96
-113.69
-84.34
-51.97
-20.64
6.68
28.65
45.23
57.05
64.79
68.91
69.74
67.72
63.59
58.33
53.04
48.66
45.79
44.54
44.57
45.28
45.95
46.02
45.22
43.57
41.21
38.27
34.68
30.19
24.44
17.09
8.10
-2.32
-13.61
-25.19
-36.40
-46.86
-56.46
-65.42
-74.22
-83.55
-94.24
-107.09
-122.38
-139.41
-156.12
-169.19
-174.83
-170.04
-153.70
-127.17
-93.87
-58.18
-24.09
5.77
30.31
49.65
64.39
75.07
81.98
85.32
85.41
82.90
78.79
74.20
70.18
67.34
65.86
65.43
65.46
65.35
64.66
63.19
60.93
57.93
54.16
49.47
43.54
36.02
26.63
15.35
2.46
-11.39
-25.41
-38.81
-51.06
-62.07
-72.24
-82.37
-93.54
-106.82
-122.82
-141.16
-160.07
-176.43
-186.36
-186.34
-174.41
-150.92
-118.58
-81.54
-44.15
-9.77
19.80
44.24
64.03
79.79
91.83
100.13
104.65
105.63
103.82
100.40
96.63
93.53
91.54
90.51
89.86
88.98
87.45
85.20
82.40
79.19
75.53
70.96
64.85
56.54
45.65
32.37
17.36
1.66
-13.67
-27.87
-40.68
-52.34
-63.50
-75.00
-87.77
-102.65
-120.08
-139.63
-159.54
-176.65
-186.97
-186.77
-173.96
-148.85
-114.21
-74.38
-33.88
3.72
36.44
63.71
85.77
103.09
116.01
124.77
129.66
131.23
130.26
127.69
124.31
120.74
117.25
113.94
110.89
108.30
106.39
105.18
104.31
102.97
100.11
94.92
87.13
77.19
66.04
54.67
43.74
33.26
22.76
11.54
-0.87
-14.50
-28.88
-43.20
-56.64
-68.70
-79.45
-89.60
-100.42
-113.38
-129.61
-149.14
-170.33
-189.81
-203.01
-205.45
-194.22
-169.10
-132.73
-89.80
-45.56
-4.35
31.32
60.72
84.27
102.73
116.61
126.14
131.49
133.15
132.08
129.51
126.65
124.34
122.87
122.04
121.49
120.86
120.02
118.97
117.72
116.19
114.07
110.92
106.27
99.76
91.30
81.07
69.57
57.45
45.43
34.06
23.60
13.97
4.76
-4.55
-14.48
-25.32
-36.98
-49.02
-60.83
-71.78
-81.52
-90.13
-98.19
-106.66
-116.77
-129.67
-145.94
-165.01
-184.68
-201.16
-209.89
-206.79
-189.78
-159.62
-119.80
-75.41
-31.60
7.79
40.78
67.08
87.26
102.11
112.22
118.07
120.23
119.62
117.37
114.62
112.24
110.57
109.52
108.77
108.17
107.81
107.91
108.65
109.81
110.70
110.36
107.92
103.01
95.86
87.22
77.98
68.84
60.08
51.54
42.89
33.82
24.34
14.74
5.45
-3.22
-11.30
-19.14
-27.32
-36.32
-46.27
-56.93
-67.75
-78.13
-87.64
-96.25
-104.29
-112.55
-122.10
-134.09
-149.20
-167.00
-185.43
-200.85
-208.75
-205.20
-188.25
-158.79
-120.38
-78.03
-36.68
0.14
30.77
55.08
73.76
87.56
97.08
102.80
105.30
105.41
104.07
102.22
100.49
99.15
98.16
97.31
96.44
95.58
94.90
94.61
94.73
94.86
94.27
92.15
87.97
81.74
74.17
66.26
58.91
52.52
46.80
40.97
34.26
26.27
17.17
7.63
-1.60
-10.04
-17.71
-25.08
-32.77
-41.24
-50.56
-60.35
-69.97
-78.78
-86.49
-93.23
-99.67
-106.90
-116.13
-128.35
-143.71
-161.04
-177.61
-189.49
-192.59
-183.95
-162.89
-131.40
-93.54
-54.19
-17.60
13.50
38.20
56.84
70.34
79.58
85.24
87.85
88.00
86.43
84.02
81.53
79.53
78.28
77.74
77.76
78.09
78.59
79.13
79.55
79.60
78.98
77.32
74.35
69.96
64.28
57.57
50.13
42.24
34.12
25.91
17.79
9.94
2.48
-4.62
-11.58
-18.79
-26.61
-35.17
-44.29
-53.47
-62.16
-69.96
-76.83
-83.18
-89.82
-97.76
-107.98
-121.03
-136.55
-152.80
-166.70
-174.36
-172.24
-158.40
-133.38
-100.16
-63.29
-27.37
4.09
29.41
48.54
62.37
71.91
77.93
80.86
81.07
79.17
76.01
72.59
69.74
67.94
67.22
67.27
67.70
68.23
68.74
69.19
69.59
69.78
69.45
68.19
65.57
61.25
55.10
47.32
38.42
29.11
20.15
12.05
4.95
-1.45
-7.75
-14.62
-22.48
-31.35
-40.78
-50.15
-58.83
-66.51
-73.29
-79.71
-86.48
-94.44
-104.36
-116.73
-131.47
-147.45
-162.32
-172.67
-174.84
-166.20
-146.16
-116.62
-81.39
-45.01
-11.39
17.08
39.55
56.23
67.65
74.31
76.61
75.19
71.13
65.86
60.87
57.27
55.50
55.29
55.96
56.82
57.54
58.13
58.90
60.05
61.41
62.30
61.76
59.00
53.65
46.06
37.13
28.01
19.58
12.15
5.38
-1.53
-9.41
-18.71
-29.29
-40.48
-51.32
-61.08
-69.43
-76.73
-83.78
-91.71
-101.63
-114.36
-129.88
-147.05
-163.37
-175.31
-179.22
-172.41
-154.15
-126.08
-91.68
-55.24
-20.66
9.38
33.62
51.91
64.67
72.45
75.87
75.64
72.62
67.88
62.50
57.47
53.51
50.98
49.97
50.25
51.41
52.90
54.11
54.44
53.52
51.15
47.39
42.46
36.50
29.49
21.28
11.67
0.57
-11.79
-24.92
-38.20
-50.97
-62.80
-73.55
-83.41
-93.03
-103.41
-115.78
-131.14
-149.61
-169.74
-188.42
-201.30
-204.09
-194.01
-170.88
-137.22
-97.48
-56.60
-18.62
14.01
40.51
61.16
76.59
87.41
94.00
96.68
96.02
92.89
88.48
84.01
80.47
78.22
77.00
76.15
74.85
72.64
69.55
65.97
62.32
58.65
54.47
48.87
40.86
29.79
15.71
-0.64
-18.02
-35.11
-50.97
-65.35
-78.65
-91.85
-106.20
-122.96
-143.02
-166.40
-191.81
-216.37
-235.96
-246.15
-243.54
-226.90
-197.80
-160.08
