1522934290.00
64.000000
-0.00
-0.00
-0.00
-0.00
-0.00
-0.00
-0.00
-0.00
-0.00
-0.00
0.00
0.01
0.01
-0.00
-0.03
-0.05
-0.05
0.00
0.13
0.36
0.66
1.01
1.37
1.72
2.06
2.40
2.79
3.24
3.80
4.42
5.06
5.66
6.20
6.68
7.15
7.68
8.31
9.14
10.09
11.04
11.88
12.56
13.14
13.76
14.65
15.96
17.91
20.32
22.90
25.38
27.58
29.57
31.68
34.32
37.81
42.54
48.15
54.10
59.83
64.97
69.58
74.14
79.34
85.71
93.76
103.00
112.62
121.73
129.77
136.75
143.30
150.75
157.77
166.64
177.95
191.79
206.97
220.57
228.25
225.36
208.53
176.87
132.76
80.05
23.07
-34.94
-92.44
-149.16
-205.23
-260.37
-313.74
-363.86
-409.82
-450.88
-486.47
-515.69
-537.16
-549.12
-549.84
-538.21
-514.01
-478.43
-433.59
-382.11
-326.62
-269.38
-212.11
-156.07
-102.29
-51.65
-5.10
36.46
72.39
102.41
126.66
145.65
160.09
170.68
178.06
182.61
184.62
184.33
182.00
177.99
172.69
166.53
159.85
152.89
145.79
138.63
131.45
124.29
117.21
110.29
103.59
97.17
91.07
85.30
79.89
74.83
70.14
65.85
61.94
58.43
55.30
52.55
50.15
48.09
46.35
44.88
43.65
42.60
41.68
40.80
39.87
38.77
37.38
35.58
33.26
30.36
26.84
22.73
18.02
12.87
7.44
1.94
-3.40
-8.35
-12.74
-16.39
-19.22
-21.22
-22.42
-22.94
-22.98
-22.73
-22.37
-22.07
-21.96
-22.05
-22.34
-22.80
-23.41
-24.14
-24.92
-25.70
-26.36
-26.79
-26.77
-26.12
-24.61
-22.12
-18.51
-13.71
-7.70
-0.58
7.44
16.17
25.23
34.16
42.23
48.77
53.25
55.35
55.06
52.74
49.39
45.94
43.23
41.62
41.32
42.40
44.73
48.26
52.99
59.73
68.84
80.43
93.92
108.60
123.81
138.50
151.82
163.03
172.65
180.25
185.71
187.39
183.22
171.09
148.50
113.95
67.07
10.37
-53.65
-117.91
-175.43
-220.15
-248.33
-259.85
-256.27
-249.65
-243.22
-236.99
-229.80
-221.64
-213.78
-203.31
-190.80
-177.51
-164.74
-152.16
-140.69
-132.08
-128.49
-130.47
-135.68
-139.93
-137.72
-125.10
-100.30
-65.52
-24.88
17.66
59.54
98.84
132.20
155.18
163.58
156.87
139.01
118.52
105.48
107.43
125.87
155.04
184.97
204.95
207.50
189.79
153.66
104.60
50.25
-0.94
-41.03
-63.67
-65.79
-48.72
-18.50
15.69
44.58
62.04
66.88
62.58
55.21
50.65
52.70
62.34
78.36
98.25
118.89
136.91
148.90
151.81
143.27
122.31
89.28
45.37
-7.69
-68.57
-136.85
-213.27
-299.02
-394.13
-495.26
-594.61
-680.63
-740.92
-766.28
-754.12
-709.30
-642.07
-564.01
-484.10
-406.71
-332.07
-258.51
-184.81
-111.37
-40.10
26.82
87.62
141.49
188.24
228.07
261.60
290.02
315.74
342.00
371.55
404.65
437.62
463.08
472.43
459.42
423.24
369.06
306.09
243.67
187.78
139.59
96.24
52.87
4.63
-52.24
-119.50
-196.32
-278.62
-359.23
-429.32
-481.18
-510.85
-519.23
-511.17
-492.93
-469.58
-443.64
-415.45
-384.42
-350.27
-313.40
-274.43
-233.72
-191.29
-147.33
-102.85
-59.92
-21.19
10.77
34.41
49.70
57.91
61.08
61.21
59.58
56.52
51.58
43.94
33.03
18.86
2.07
-16.33
-35.31
-54.11
-72.46
-90.40
-108.24
-126.20
-144.28
-162.28
-179.74
-196.05
-210.58
-222.66
-231.72
-237.25
-238.84
-236.19
-229.04
-217.15
-200.23
-177.87
-149.67
-115.33
-74.89
-28.91
21.47
74.69
128.92
182.52
234.21
283.20
329.24
372.50
413.45
452.53
489.74
524.21
553.96
576.17
587.86
586.98
573.43
549.39
518.79
486.08
454.82
426.77
402.03
379.71
358.99
339.58
321.61
305.19
290.12
275.96
262.35
249.27
236.93
225.49
214.80
204.41
193.87
182.87
171.18
158.57
144.85
130.32
116.25
104.94
98.92
99.61
106.13
115.13
122.02
122.78
115.45
100.25
78.56
51.60
20.08
-15.10
-51.77
-86.16
-114.30
-134.01
-146.45
-155.54
-165.45
-177.61
-189.17
-194.09
-186.49
-164.12
-129.96
-90.95
-54.80
-26.71
-7.91
3.47
10.16
13.92
14.98
13.02
8.56
3.68
1.49
4.68
14.12
28.34
44.22
58.41
68.30
72.31
69.36
58.47
39.19
12.58
-17.96
-47.05
-69.08
-80.35
-80.53
-72.38
-60.08
-47.17
-35.41
-24.80
-14.68
-4.72
4.66
12.67
18.67
22.51
24.20
23.51
19.86
12.65
2.09
-10.12
-20.94
-26.98
-26.20
-19.25
-9.74
-2.98
-3.52
-13.07
-29.61
-48.41
-64.25
-73.55
-75.37
-70.95
-62.46
-51.96
-40.85
-29.93
-19.43
-8.96
2.53
16.41
33.44
52.85
71.92
86.62
93.18
89.90
78.29
62.72
49.15
43.06
47.82
63.85
88.45
116.36
140.80
155.14
155.09
140.34
114.95
85.75
59.57
40.51
28.93
22.70
19.52
18.80
21.63
29.05
40.18
51.73
59.59
61.50
58.56
54.27
51.54
49.74
43.70
25.88
-9.94
-65.17
-134.92
-209.24
-276.50
-327.14
-356.24
-363.74
-352.54
-326.54
-289.18
-243.23
-191.56
-138.05
-87.28
-43.38
-8.75
17.42
38.20
57.25
76.82
96.77
115.01
128.76
135.82
135.40
129.43
120.98
113.38
109.32
110.26
116.81
129.33
148.48
174.99
210.53
254.44
302.70
348.04
381.87
397.61
393.07
370.84
336.63
299.52
267.34
245.58
237.05
241.97
258.94
285.44
318.25
339.15
334.29
295.74
225.06
132.76
33.08
-61.41
-143.29
-210.15
-263.02
-301.96
-327.66
-341.43
-344.07
-339.80
-332.50
-324.87
-318.11
-312.69
-306.65
-298.02
-285.56
-269.33
-250.99
-232.60
-216.31
-202.07
-189.91
-178.36
-165.99
-151.84
-135.78
-118.66
-101.40
-84.59
-68.20
-51.99
-34.90
-16.13
4.37
25.68
46.00
63.56
77.03
86.15
90.93
92.48
91.97
89.91
85.78
78.17
65.67
47.34
23.54
-5.43
-38.21
-73.27
-109.72
-147.87
-189.07
-235.70
-291.16
-358.11
-438.68
-530.48
-626.18
-714.74
-784.71
-827.60
-841.02
-829.48
-800.66
-763.87
-723.59
-679.31
-627.42
-564.43
-488.52
-400.76
-304.79
-192.67
-66.08
66.34
190.10
291.25
361.59
400.17
417.28
419.63
412.34
398.38
384.02
375.80
379.52
392.06
411.38
434.98
459.64
483.59
504.57
524.23
543.75
562.67
578.69
589.28
591.70
583.51
564.10
515.95
433.06
320.60
192.98
67.21
-43.50
-132.89
-200.44
-248.09
-279.37
-295.18
-297.08
-287.97
-271.35
-249.75
-224.84
-197.24
-166.06
-129.92
-85.68
-32.65
20.81
63.85
85.54
78.76
43.13
-14.42
-82.50
-147.44
-198.23
-228.52
-236.10
-222.86
-194.10
-157.00
-119.29
-88.61
-69.79
-64.29
-70.28
-83.36
-99.07
-114.20
-126.98
-136.37
-142.18
-144.40
-143.47
-140.36
-135.83
-130.19
-122.79
-115.96
-109.86
-104.23
-98.98
-94.15
-90.25
-87.92
-87.86
-90.50
-95.77
-102.53
-109.60
-115.95
-120.70
-123.44
-124.19
-123.31
-121.23
-118.21
-113.79
-107.47
-98.88
-87.35
-72.68
-55.38
-36.59
-17.79
-0.16
16.02
31.00
45.32
61.08
79.75
101.38
124.35
146.06
164.23
177.94
187.56
194.24
202.51
215.87
235.19
258.09
280.24
297.91
309.68
316.56
320.98
330.74
351.83
385.91
429.42
475.56
518.15
554.18
584.07
610.44
643.72
693.45
764.62
855.05
955.81
1054.38
1138.03
1196.48
1180.55
1061.53
839.84
550.05
244.64
-31.72
-256.52
-427.26
-551.70
-639.67
-692.54
-711.07
-699.22
-666.35
-625.00
-586.03
-555.35
-533.86
-519.24
-503.18
-479.09
-444.68
-403.07
-360.66
-323.44
-294.45
-273.60
-258.85
-244.61
-226.47
-202.91
-175.82
-149.19
-126.76
-110.32
-100.18
-94.82
-90.94
-85.80
-78.08
-68.16
-57.51
-47.51
-38.75
-31.25
-24.47
-17.30
-8.90
0.94
11.82
23.01
33.87
44.23
53.78
62.62
70.86
78.52
85.55
91.88
97.54
102.70
107.82
112.74
117.47
121.88
125.54
127.80
127.78
124.39
116.19
106.01
94.81
83.21
71.42
59.23
46.12
31.53
15.13
-2.96
-22.05
-41.78
-61.51
-80.78
-99.44
-117.82
-136.66
-157.01
-179.87
-205.59
-233.91
-262.76
-288.67
-307.66
-316.57
-314.35
-302.60
-285.03
-265.97
-248.96
-235.25
-223.87
-212.70
-199.69
-183.69
-164.29
-141.49
-115.38
-86.42
-55.30
-22.64
11.57
48.30
89.13
135.12
185.44
236.72
283.49
319.99
342.25
349.40
343.97
330.85
316.08
305.58
304.03
313.65
333.26
358.31
382.10
398.15
402.36
394.05
375.19
348.54
315.97
277.81
233.57
183.43
129.21
74.26
22.30
-24.13
-64.76
-101.33
-136.67
-173.48
-213.63
-257.96
-306.23
-356.77
-405.90
-447.90
-475.54
-482.26
-465.10
-426.78
-375.79
-323.63
-280.66
-252.58
-239.56
-238.10
-244.15
-255.43
-272.02
-295.20
-325.74
-362.69
-403.10
-442.64
-476.36
-499.49
-508.03
-499.61
-473.94
-433.03
-380.71
-321.50
-259.46
-197.60
-137.96
-81.91
-30.14
17.54
62.48
106.60
151.07
194.78
233.27
259.81
267.95
254.99
224.28
184.84
148.22
124.12
116.46
122.33
134.08
143.27
144.35
136.32
121.87
105.31
90.59
80.42
76.39
79.72
91.60
113.01
144.18
184.29
231.62
283.92
338.72
393.35
444.76
489.16
522.41
541.08
543.48
530.40
504.79
470.64
431.67
390.14
347.08
302.99
258.57
214.76
172.30
131.18
90.29
47.54
0.34
-53.04
-112.14
-173.54
-231.33
-278.67
-309.88
-322.44
-317.91
-301.81
-280.74
-259.55
-239.87
-220.61
-199.90
-176.94
-152.84
-130.07
-112.55
-102.16
-97.36
-93.90
-87.30
-75.12
-57.69
-37.37
-17.07
-2.45
3.13
0.31
-6.73
-13.20
-15.88
-13.23
-4.55
10.38
25.14
32.52
27.28
7.48
-26.55
-73.27
-129.67
-191.20
-252.91
-318.34
-391.40
-472.01
-554.37
-630.27
-693.25
-740.11
-770.77
-742.60
-633.77
-455.61
-249.49
-58.35
95.34
209.22
290.94
349.97
393.71
419.51
423.77
407.85
379.22
347.54
320.19
300.78
289.67
285.04
278.42
261.54
231.71
192.05
148.08
104.10
62.71
26.01
-3.19
-20.84
-26.72
-21.37
-6.68
13.22
32.51
46.41
53.35
55.05
52.99
47.54
39.04
27.97
15.53
3.71
-4.77
-7.66
-4.31
3.23
10.97
15.63
15.92
12.66
8.17
5.26
5.74
9.85
16.73
24.87
33.16
40.25
43.80
40.52
27.73
4.99
-24.28
-52.89
-72.85
-78.31
-68.43
-47.22
-21.22
4.12
25.36
40.86
49.40
49.02
37.87
16.09
-12.42
-42.85
-66.05
-73.89
-62.89
-35.68
0.06
34.67
60.10
72.26
71.64
62.63
50.62
39.95
32.75
28.92
26.97
25.41
23.43
21.14
18.92
16.40
12.44
6.09
-2.02
-9.00
-10.43
-2.23
17.14
45.74
78.43
108.98
132.63
147.52
154.35
155.33
152.56
147.09
138.93
127.61
113.32
97.26
81.74
69.23
61.69
59.86
63.09
69.62
77.27
84.29
89.85
94.20
97.80
101.35
105.41
110.24
115.88
122.31
130.08
139.90
152.59
167.40
183.02
198.11
211.52
222.37
229.66
233.04
231.26
222.96
204.44
173.34
130.51
80.26
29.13
-16.94
-52.50
-76.47
-90.41
-101.21
-114.72
-132.99
-154.46
-175.42
-194.00
-208.42
-221.59
-238.00
-266.40
-312.05
-374.02
-446.77
-522.17
-595.62
-663.42
-728.52
-758.61
-730.94
-642.80
-514.98
-376.81
-246.58
-151.11
-81.11
-29.79
2.15
5.79
-26.10
-84.54
-157.64
-228.16
-282.02
-306.87
-284.36
-212.49
-109.52
-2.85
85.41
139.41
172.48
200.67
237.79
288.33
349.21
411.40
466.47
509.13
530.77
526.54
495.84
448.35
397.28
351.68
313.55
280.74
250.88
223.30
201.71
189.31
186.96
191.50
195.98
193.70
181.56
160.97
135.94
112.44
93.70
79.59
68.97
57.39
40.58
16.61
-13.49
-46.62
-78.35
-105.48
-126.91
-143.64
-158.81
-175.77
-197.18
-224.83
-259.77
-301.68
-348.22
-394.01
-430.63
-448.96
-442.20
-409.00
-354.73
-289.88
-225.94
-171.41
-129.72
-99.75
-78.75
-64.72
-57.42
-57.61
-65.23
-78.18
-92.56
-104.37
-111.34
-113.94
-114.65
-115.77
-117.34
-116.28
-107.77
-88.18
-57.94
-22.29
10.82
34.58
46.60
49.47
48.45
47.84
48.55
48.61
45.81
40.20
34.51
32.04
33.55
35.73
32.52
18.59
-6.94
-39.12
-68.92
-86.86
-86.87
-68.77
-38.18
-4.46
22.74
36.91
36.81
26.44
12.95
3.25
0.91
5.07
11.60
15.80
14.84
8.82
-0.05
-9.20
-17.11
-23.60
-28.94
-32.69
-33.21
-28.12
-15.34
5.77
33.96
66.40
99.45
130.02
156.27
178.07
196.87
215.00
234.81
258.33
287.24
322.91
365.93
414.98
465.84
511.38
543.15
554.15
541.59
508.05
460.35
406.65
353.44
303.89
258.05
214.57
172.20
130.38
88.66
46.14
1.44
-46.13
-95.32
-142.51
-182.70
-211.29
-226.01
-227.71
-219.74
-206.47
-191.72
-178.05
-166.68
-157.97
-151.80
-147.59
-144.31
-140.67
-135.62
-128.92
-121.28
-113.98
-108.19
-104.46
-102.55
-101.78
-101.42
-101.03
-100.38
-99.31
-97.73
-95.56
-93.04
-90.69
-89.14
-88.68
-88.96
-88.89
-86.97
-81.89
-73.06
-60.90
-46.53
-31.46
-16.99
-4.04
6.94
15.77
22.38
26.82
29.23
29.85
28.96
26.81
23.55
19.34
14.57
9.91
6.23
4.33
4.62
6.98
10.79
15.22
19.50
23.14
25.88
27.76
28.87
29.28
29.02
28.07
26.40
24.05
21.10
17.63
13.71
9.30
4.40
-0.95
-6.58
-12.14
-17.27
-21.70
-25.32
-28.15
-30.27
-31.76
-32.69
-33.19
-33.56
-34.23
-35.70
-38.35
-42.25
-46.96
-51.39
-54.06
-53.37
-48.30
-38.72
-25.54
-10.44
4.75
18.58
30.37
40.14
48.19
54.70
59.38
61.59
60.72
56.61
49.80
41.45
32.93
25.37
19.37
15.11
12.56
11.75
12.75
15.44
19.25
23.16
26.02
26.93
25.51
21.92
16.53
9.72
1.79
-6.84
-15.41
-22.76
-27.64
-29.32
-27.92
-24.56
-20.81
-17.96
-16.34
-15.06
-12.39
-6.65
2.81
15.12
28.05
39.06
46.32
49.40
49.31
47.70
46.12
45.47
46.00
47.53
49.71
52.11
54.09
54.97
54.34
52.56
50.74
50.23
51.72
54.49
56.48
55.03
48.05
34.92
16.71
-4.32
-25.34
-43.59
-56.86
-63.93
-65.00
-62.05
-58.59
-58.48
-64.38
-76.24
-90.95
-103.46
-108.99
-105.26
-93.45
-77.55
-62.27
-50.95
-44.25
-40.49
-37.03
-31.83
-24.32
-15.20
-5.56
3.99
13.56
23.67
34.60
46.04
57.33
67.81
77.13
85.13
91.43
95.07
94.70
89.10
78.06
62.77
45.44
28.44
13.11
-0.76
-14.53
-29.62
-46.47
-64.08
-80.36
-93.13
-101.02
-103.85
-102.29
-97.36
-89.78
-80.13
-69.12
-58.08
-48.98
-43.97
-44.53
-50.68
-60.72
-71.59
-79.85
-82.72
-78.89
-68.75
-53.88
-36.31
-17.84
0.34
17.58
33.49
47.80
60.30
70.88
79.54
86.40
91.65
95.47
98.09
99.62
100.02
98.89
95.67
90.09
82.78
75.40
70.52
70.67
76.97
88.40
101.67
112.21
115.77
109.97
95.41
75.68
56.27
42.85
39.37
46.69
62.29
81.35
98.45
109.67
113.84
112.65
109.31
106.89
106.74
108.11
108.85
106.73
100.74
91.42
80.21
68.39
56.28
42.90
26.90
7.32
-15.93
-42.36
-71.63
-103.72
-138.65
-175.59
-212.40
-245.87
-272.85
-291.46
-301.39
-303.50
-298.98
-288.80
-274.10
-256.78
-239.87
-226.77
-219.76
-218.77
-221.20
-223.27
-221.98
-216.41
-207.67
-197.47
-186.37
-172.97
-154.49
-128.29
-93.54
-51.86
-6.93
36.88
75.96
108.49
134.70
156.42
175.98
194.92
213.04
228.02
236.10
233.53
218.20
190.93
155.74
118.94
87.29
65.82
56.19
56.25
60.89
64.03
61.06
50.70
35.47
20.50
11.05
9.92
16.03
24.80
30.24
27.77
16.24
-1.79
-21.42
-37.54
-46.88
-48.65
-43.80
-33.61
-18.38
2.48
29.31
60.61
92.07
117.16
129.28
124.14
101.42
64.59
19.32
-28.65
-74.83
-116.28
-151.01
-177.39
-194.04
-200.34
-197.01
-186.14
-170.29
-151.49
-130.51
-107.24
-81.72
-55.39
-31.37
-13.46
-4.37
-4.01
-9.12
-14.57
-15.58
-10.00
0.95
13.56
23.80
29.29
30.22
28.69
27.15
27.19
28.90
31.25
32.85
32.76
30.97
28.54
27.37
29.49
36.21
47.26
60.80
74.14
85.16
93.54
100.85
109.64
121.65
136.70
152.54
166.06
174.77
177.80
175.79
170.08
161.96
152.34
142.10
132.41
124.65
119.94
118.34
118.53
118.15
114.62
105.96
91.37
71.18
46.77
20.29
-5.60
-28.38
-46.59
-60.75
-73.78
-89.93
-112.74
-142.70
-176.34
-207.22
-228.78
-237.33
-233.43
-221.16
-205.54
-189.95
-175.05
-159.55
-142.06
-122.60
-102.77
-84.86
-70.41
-59.45
-50.63
-42.11
-32.78
-22.80
-13.42
-6.20
-1.85
0.34
2.33
6.25
12.98
21.21
27.46
27.48
18.40
0.62
-21.80
-42.81
-57.15
-62.93
-62.17
-59.16
-57.57
-58.15
-58.31
-53.90
-42.05
-23.16
-0.90
19.78
35.21
44.57
49.62
52.97
56.20
59.12
60.31
58.54
54.00
48.43
44.30
43.39
45.60
48.93
50.48
48.07
41.48
32.73
25.12
21.75
24.17
31.65
41.58
50.58
55.79
55.88
51.39
44.34
37.38
32.81
31.80
34.18
38.69
43.76
48.11
50.89
51.32
48.41
41.22
29.59
14.94
0.26
-10.97
-16.50
-16.76
-15.17
-16.95
-26.52
-45.13
-69.51
-92.83
-107.37
-107.71
-92.99
-66.95
-35.95
-6.11
19.15
39.67
57.37
74.00
89.47
101.60
107.52
105.58
96.53
83.13
68.60
55.03
42.68
30.68
18.53
7.39
0.22
0.66
11.28
32.29
61.30
94.11
125.70
151.25
166.70
169.14
157.42
132.59
98.01
58.72
20.12
-13.63
-40.35
-59.90
-73.33
-82.02
-87.13
-89.70
-90.83
-91.79
-93.72
-97.19
-101.99
-107.22
-111.76
-114.86
-116.48
-117.37
-118.63
-121.16
-125.01
-129.12
-131.45
-129.77
-122.45
-109.18
-91.11
-70.48
-49.79
-31.12
-15.65
-3.67
5.11
11.22
15.14
17.27
17.88
17.30
15.86
13.88
11.70
9.57
7.71
6.25
5.24
4.63
4.42
4.70
5.76
8.06
12.08
18.14
26.17
35.45
44.68
52.09
55.93
55.09
49.52
40.38
29.64
19.32
10.75
4.16
-1.27
-6.91
-14.08
-23.62
-35.80
-50.29
-66.19
-82.02
-95.81
-105.42
-109.15
-106.40
-97.92
-85.49
-71.08
-56.18
-41.37
-26.56
-11.40
4.39
20.91
38.16
56.01
73.91
90.65
104.38
113.02
115.15
111.01
102.96
95.01
91.32
94.14
102.24
110.82
113.34
104.53
83.30
53.65
23.20
-0.23
-12.03
-12.46
-5.75
2.66
8.84
11.71
12.26
11.77
10.29
6.44
-1.61
-14.69
-31.79
-50.21
-66.51
-77.88
-83.04
-82.54
-78.35
-72.99
-68.75
-67.34
-69.73
-76.37
-87.47
-103.10
-123.26
-147.77
-176.08
-207.14
-239.42
-271.02
-300.00
-324.81
-344.55
-358.97
-368.08
-371.71
-369.09
-358.91
-339.79
-311.02
-273.22
-228.42
-179.70
-130.45
-83.46
-40.31
-1.06
35.68
72.31
111.53
155.13
202.56
250.02
290.85
317.52
324.63
311.48
282.81
247.24
214.12
190.38
178.93
179.08
188.38
204.36
225.46
250.67
278.76
307.68
334.59
356.36
370.10
373.49
365.04
344.41
312.50
271.42
224.01
173.30
122.17
73.23
28.93
-8.46
-37.17
-56.57
-67.52
-72.23
-73.49
-73.66
-73.97
-74.44
-74.31
-72.77
-69.60
-65.31
-60.92
-57.53
-56.02
-56.92
-60.29
-65.63
-71.72
-76.65
-78.07
-73.76
-62.36
-43.90
-19.88
7.09
34.07
58.66
79.55
96.54
109.96
119.87
125.53
125.51
118.43
104.06
83.89
60.92
38.59
19.48
4.54
-6.65
-14.76
-19.53
-19.26
-11.43
6.00
33.40
68.93
109.00
149.17
185.03
212.89
230.10
235.33
228.78
212.22
188.69
161.74
134.70
110.14
89.76
74.64
65.41
62.18
64.19
69.57
75.48
78.82
77.24
69.93
57.76
42.59
26.30
9.83
-7.28
-26.60
-50.20
-80.09
-117.65
-163.02
-214.30
-266.93
-313.98
-347.46
-360.73
-350.95
-320.42
-275.90
-226.15
-178.87
-138.28
-104.78
-76.29
-50.53
-26.65
-5.62
10.84
21.76
27.87
31.42
34.86
39.39
43.98
45.58
40.62
26.84
4.17
-25.44
-59.16
-94.37
-129.20
-162.13
-191.44
-214.84
-229.96
-235.24
-230.52
-217.31
-198.25
-176.41
-154.50
-134.49
-117.36
-103.07
-90.72
-78.98
-66.70
-53.41
-39.49
-25.90
-13.66
-3.41
4.63
10.52
14.55
17.27
19.48
22.23
26.41
32.29
39.29
46.22
51.92
55.87
58.34
60.07
61.71
63.40
64.75
65.13
64.09
61.45
57.18
51.32
43.88
34.98
25.11
15.02
5.58
-2.70
-9.77
-16.07
-22.17
-28.38
-34.57
-40.30
-45.11
-48.87
-51.88
-54.78
-58.33
-63.06
-69.09
-75.96
-82.66
-87.72
-89.56
-86.88
-79.01
-66.10
-49.12
-29.61
-9.21
10.49
28.25
43.21
54.86
62.94
67.50
68.73
67.08
63.16
57.78
51.86
46.38
42.16
39.76
39.38
40.90
43.97
48.10
52.78
57.44
61.51
64.46
65.95
65.95
64.70
62.62
60.06
57.14
53.71
49.42
43.97
37.25
29.47
21.12
12.91
5.56
-0.37
-4.61
-7.35
-9.15
-10.81
-13.11
-16.70
-21.98
-29.05
-37.65
-47.01
-55.68
-61.67
-62.87
-57.75
-45.97
-28.70
-8.29
12.53
31.44
47.05
58.97
67.43
72.92
75.80
76.21
74.20
69.74
63.09
54.78
45.73
37.04
29.78
24.74
22.19
21.93
23.52
26.44
30.31
34.90
39.96
45.06
49.60
52.90
54.48
54.21
52.42
49.71
46.63
43.47
40.16
36.44
32.20
27.65
23.34
19.82
17.39
15.90
14.90
13.84
12.35
10.26
7.64
4.63
1.46
-1.55
-4.00
-5.47
-5.71
-4.79
-3.13
-1.34
-0.02
0.51
0.23
-0.65
-1.80
-2.91
-3.72
-4.05
-3.83
-3.11
-2.13
-1.25
-0.86
-1.21
-2.31
-3.88
-5.50
-6.81
-7.57
-7.74
-7.38
-6.63
-5.58
-4.38
-3.25
-2.50
-2.48
-3.40
-5.22
-7.63
-10.11
-12.12
-13.38
-13.94
-14.15
-14.50
-15.32
-16.71
-18.50
-20.45
-22.46
-24.61
-27.22
-30.62
-34.97
-40.08
-45.49
-50.48
-54.39
-56.86
-57.98
-58.39
-59.09
-61.14
-65.31
-71.85
-80.35
-89.70
-98.26
-104.13
-105.47
-101.03
-90.47
-74.52
-54.88
-33.76
-13.27
5.03
20.38
32.70
42.29
49.46
54.31
56.77
56.71
54.26
49.99
44.83
39.89
36.07
33.75
32.78
32.68
32.99
33.50
34.32
35.67
37.63
40.05
42.59
44.88
46.64
47.71
47.95
47.19
45.27
42.15
38.09
33.54
29.16
25.43
22.56
20.43
18.71
17.00
15.03
12.65
9.88
6.86
3.79
0.92
-1.52
-3.39
-4.62
-5.25
-5.39
-5.21
-4.85
-4.45
-4.08
-3.80
-3.59
-3.40
-3.28
-3.32
-3.72
-4.72
-6.57
-9.45
-13.38
-18.19
-23.46
-28.65
-33.16
-36.55
-38.58
-39.32
-39.15
-38.60
-38.22
-38.34
-39.07
-40.17
-41.32
-42.27
-43.05
-44.06
-45.96
-49.41
-54.77
-61.86
-69.77
-77.05
-81.86
-82.48
-77.71
-67.32
-52.18
-34.07
-15.20
2.47
17.67
29.99
39.64
46.99
52.20
55.15
55.61
53.60
49.46
43.87
37.55
31.09
24.84
19.11
14.29
10.84
9.26
9.79
12.28
16.26
21.01
25.87
30.34
34.09
36.92
38.72
39.43
39.05
37.66
35.35
32.18
28.21
23.53
18.36
13.13
8.34
4.49
1.84
0.29
-0.59
-1.43
-2.80
-4.89
-7.51
-10.18
-12.40
-13.85
-14.62
-15.02
-15.41
-16.09
-17.14
-18.62
-20.56
-23.05
-26.14
-29.74
-33.43
-36.61
-38.68
-39.32
-38.71
-37.52
-36.76
-37.45
-40.38
-45.78
-53.29
-61.97
-70.41
-76.95
-80.07
-78.60
-72.09
-60.84
-45.87
-28.72
-11.09
5.44
19.59
30.54
37.94
41.96
43.15
42.33
40.32
37.76
34.94
31.87
28.43
24.68
20.92
17.66
15.53
15.02
16.42
19.77
24.86
31.32
38.49
45.52
51.43
55.38
56.95
56.25
53.94
50.90
47.90
45.32
43.11
40.97
38.57
35.82
32.87
29.98
27.33
24.86
22.36
19.50
16.04
11.99
7.49
2.91
-1.38
-4.94
-7.36
-8.37
-7.89
-6.15
-3.69
-1.25
0.33
0.42
-1.20
-4.25
-7.97
-11.47
-14.11
-15.80
-17.01
-18.58
-21.25
-25.28
-30.31
-35.55
-40.10
-43.39
-45.33
-46.22
-46.55
-46.72
-46.91
-47.12
-47.29
-47.40
-47.52
-47.78
-48.40
-49.58
-51.62
-54.88
-59.72
-66.29
-74.26
-82.61
-89.66
-93.45
-92.24
-85.08
-72.13
-54.55
-34.21
-13.19
6.65
23.97
38.08
48.77
56.22
60.75
62.63
62.09
59.30
54.45
47.84
39.96
31.52
23.44
16.71
12.29
10.79
12.35
16.55
22.45
28.90
34.82
39.45
42.46
43.81
43.63
42.11
39.49
36.08
32.21
28.15
24.00
19.63
14.83
9.54
3.96
-1.49
-6.35
-10.36
-13.61
-16.52
-19.62
-23.28
-27.58
-32.32
-37.10
-41.60
-45.64
-49.18
-52.26
-54.94
-57.31
-59.42
-61.38
-63.29
-65.32
-67.72
-70.91
-75.23
-80.72
-86.76
-91.94
-94.27
-91.86
-83.53
-69.44
-50.91
-29.99
-8.78
11.14
28.77
43.50
54.87
62.47
66.15
66.23
63.49
59.01
53.81
48.55
43.51
38.77
34.45
30.89
28.70
28.52
30.77
35.43
41.99
49.50
56.87
63.14
67.65
70.13
70.59
69.23
66.32
62.21
57.32
52.15
47.22
42.86
39.16
35.90
32.69
29.11
24.92
20.20
15.28
10.61
6.58
3.36
0.79
-1.60
-4.39
-8.06
-12.82
-18.43
-24.44
-30.39
-36.03
-41.51
-47.29
-53.99
-62.14
-72.02
-83.44
-95.68
-107.34
-116.41
-120.67
-118.20
-108.06
-90.68
-67.89
-42.40
-17.05
5.87
25.00
39.80
50.33
56.95
60.10
60.26
58.04
54.06
48.96
43.34
37.81
32.96
29.32
27.26
26.81
27.65
29.23
31.07
33.03
35.31
38.29
42.10
46.33
50.10
52.38
52.52
50.59
47.41
44.22
42.16
41.86
43.32
46.05
49.35
52.67
55.77
58.81
62.31
67.10
74.17
84.43
98.36
115.60
134.65
152.87
166.88
173.48
170.83
159.23
141.28
121.05
102.48
87.93
77.42
68.92
59.61
47.20
30.87
11.18
-10.58
-33.37
-56.97
-81.86
-108.97
-139.24
-173.48
-212.64
-258.21
-312.22
-376.46
-450.77
-531.27
-609.77
-674.99
-715.78
-724.93
-701.76
-652.23
-586.33
-514.27
-443.18
-376.06
-312.76
-252.15
-193.91
-139.04
-89.17
-45.34
-7.50
25.43
54.90
82.04
107.45
131.42
154.59
178.30
204.20
233.38
265.23
297.05
324.72
344.30
353.80
354.20
349.04
342.90
339.48
340.28
344.40
349.36
352.42
351.46
345.62
335.07
320.63
303.33
284.07
263.49
242.08
220.34
198.69
177.14
154.97
130.76
103.04
71.41
37.28
3.72
-25.54
-47.69
-61.79
-68.62
-69.77
-66.41
-59.05
-47.97
-34.34
-20.58
-9.86
-4.78
-6.06
-12.26
-20.56
-28.20
-33.72
-37.34
-40.39
-44.34
-50.00
-57.10
-64.66
-71.35
-76.00
-77.69
-75.86
-70.19
-60.64
-47.44
-31.13
-12.55
7.17
26.73
44.69
59.64
70.39
76.20
77.05
73.72
67.63
60.49
53.82
48.62
45.21
43.44
43.01
43.74
45.68
49.05
53.96
60.30
67.75
75.88
84.41
93.14
101.81
109.70
115.36
116.99
113.02
102.91
87.65
69.63
51.97
37.51
27.93
23.40
22.69
23.80
24.67
23.79
20.53
15.16
8.59
1.98
-3.73
-8.21
-11.83
-15.48
-20.01
-25.82
-32.69
-39.91
-46.68
-52.46
-57.07
-60.58
-63.05
-64.33
-64.18
-62.42
-59.02
-54.12
-47.74
-39.65
-29.60
-17.63
-4.52
8.01
17.67
22.41
21.17
14.50
4.47
-5.78
-12.90
-14.33
-9.16
1.43
14.40
25.54
30.87
27.72
15.28
-5.71
-33.66
-66.77
-103.24
-141.16
-178.42
-212.69
-241.55
-262.67
-273.83
-272.97
-258.65
-230.79
-191.58
-145.61
-98.84
-56.88
-23.15
1.99
20.59
35.65
49.65
63.83
78.08
91.35
101.93
107.89
107.80
101.38
90.07
76.75
64.64
55.78
50.23
46.29
41.81
35.76
28.83
22.81
19.24
18.39
19.12
19.83
19.62
18.84
18.67
20.01
22.71
25.49
26.70
25.42
22.15
18.65
17.13
19.10
24.69
32.59
40.56
46.42
48.78
47.40
43.04
36.91
30.10
23.12
15.95
8.18
-0.55
-10.37
-20.98
-31.87
-42.29
-51.44
-58.56
-63.20
-65.50
-66.38
-67.36
-69.96
-74.87
-81.47
-87.82
-91.45
-90.41
-84.22
-74.19
-62.97
-53.53
-47.99
-46.90
-49.13
-52.41
-54.03
-51.73
-44.23
-31.63
-15.39
1.92
17.24
27.64
31.12
27.11
16.74
2.51
-12.31
-24.44
-31.33
-31.52
-25.10
-13.66
0.15
13.28
23.11
28.01
27.64
22.71
14.77
5.42
-4.09
-12.70
-19.27
-22.53
-21.66
-16.69
-8.84
0.23
8.71
15.31
19.85
23.39
27.53
33.55
42.06
53.29
67.89
86.25
107.82
130.51
151.19
166.58
174.46
174.69
166.68
153.36
139.90
130.67
126.33
124.67
123.06
119.72
113.83
104.62
91.36
72.72
49.06
21.55
-7.39
-34.89
-58.67
-77.82
-92.74
-104.25
-113.34
-121.06
-128.95
-138.94
-152.77
-171.05
-192.06
-211.69
-224.69
-227.23
-218.22
-198.95
-170.90
-134.24
-88.55
-35.25
19.98
67.33
95.93
98.83
76.57
37.51
-6.07
-43.78
-71.22
-90.59
-107.81
-128.96
-157.64
-194.21
-236.05
-278.22
-314.50
-338.24
-343.75
-327.97
-291.89
-241.05
-184.26
-130.88
-87.36
-55.78
-34.11
-18.02
-3.18
12.90
30.38
47.71
63.07
76.14
87.13
95.86
101.22
101.95
97.86
90.46
82.85
79.09
83.90
99.72
125.01
154.37
180.42
196.43
198.28
185.74
163.22
140.00
125.44
124.97
138.11
159.65
182.72
201.45
212.44
204.41
172.73
122.41
65.61
13.07
-30.67
-65.62
-91.36
-110.10
-121.77
-123.76
-114.52
-95.58
-71.09
-47.05
-27.33
-12.86
-2.66
5.44
14.24
25.19
38.25
53.01
69.80
89.65
112.32
134.65
151.64
159.15
155.65
143.16
126.26
109.85
96.97
87.42
78.55
67.82
54.91
41.60
30.38
22.76
18.43
15.78
13.13
9.81
6.63
5.29
6.94
11.19
16.13
19.27
19.07
15.66
10.99
8.03
9.57
17.09
30.17
46.60
63.11
76.81
86.35
92.65
98.46
107.08
120.53
138.41
157.71
173.95
183.20
183.70
176.76
165.97
155.59
148.55
145.11
142.77
137.00
122.78
95.57
52.59
-6.25
-77.51
-153.81
-224.55
-277.85
-303.79
-297.85
-263.21
-210.16
-153.09
-105.85
-77.54
-70.86
-83.33
-110.55
-148.74
-195.46
-247.80
-300.22
-343.85
-368.40
-366.15
-335.23
-280.88
-213.22
-143.57
-80.92
-30.24
7.18
32.77
49.29
60.18
68.91
78.26
89.62
102.66
115.82
127.30
135.89
140.80
141.29
136.08
123.51
102.37
72.96
37.44
-0.67
-37.63
-70.68
-98.55
-121.28
-139.50
-153.70
-163.94
-169.93
-171.51
-168.99
-163.34
-155.97
-148.31
-141.37
-135.54
-130.71
-126.53
-122.61
-118.71
-114.71
-110.64
-106.63
-102.94
-99.91
-97.90
-97.14
-97.58
-98.82
-100.19
-101.02
-100.94
-100.13
-99.27
-99.23
-100.57
-103.02
-105.39
-105.83
-102.49
-94.27
-81.24
-64.75
-47.13
-31.15
-19.36
-13.45
-13.53
-17.86
-22.99
-24.74
-19.59
-5.93
15.37
41.54
69.14
95.56
119.78
142.39
165.09
190.13
219.87
256.05
298.69
344.96
388.80
421.93
436.36
427.26
394.67
343.20
280.05
212.45
146.07
84.89
31.83
-10.59
-40.57
-57.89
-64.63
-64.76
-62.74
-61.88
-63.33
-66.26
-68.89
-69.58
-67.68
-63.56
-58.23
-52.80
-48.15
-44.69
-42.30
-40.50
-38.63
-36.16
-32.85
-28.87
-24.66
-20.68
-17.26
-14.48
-12.25
-10.33
-8.56
-6.83
-5.07
-3.31
-1.61
-0.13
0.99
1.55
1.41
0.53
-1.00
-3.01
-5.25
-7.48
-9.54
-11.38
-13.08
-14.84
-16.84
-19.22
-22.04
-25.23
-28.69
-32.29
-35.89
-39.43
-42.92
-46.51
-50.51
-55.29
-61.04
-67.53
-73.92
-78.80
-80.62
-78.12
-70.82
-59.16
-44.38
-28.03
-11.63
3.67
17.17
28.48
37.36
43.70
47.48
48.89
48.38
46.51
43.90
40.95
37.79
34.41
30.85
27.36
24.51
22.95
23.11
25.04
28.36
32.47
36.84
41.13
45.13
48.69
51.53
53.33
53.82
53.03
51.19
48.73
46.03
43.31
40.57
37.75
34.80
31.75
28.66
25.60
22.59
19.62
16.71
13.90
11.25
8.78
6.55
4.58
2.96
1.71
0.81
0.06
-0.87
-2.34
-4.55
-7.43
-10.65
-13.76
-16.47
-18.78
-20.96
-23.39
-26.31
-29.75
-33.51
-37.34
-41.08
-44.76
-48.56
-52.80
-57.82
-63.81
-70.74
-78.13
-84.95
-89.73
-90.84
-87.01
-77.73
-63.55
-45.88
-26.63
-7.70
9.42
23.75
34.88
42.84
47.99
50.87
52.07
52.04
50.99
48.88
45.57
41.10
35.88
30.62
26.14
23.14
21.97
22.63
24.88
28.34
32.59
37.08
41.27
44.56
46.49
46.85
45.78
43.65
40.97
38.15
35.39
32.69
29.88
26.73
23.10
19.00
14.53
9.87
5.23
0.78
-3.37
-7.14
-10.53
-13.63
-16.65
-19.87
-23.44
-27.34
-31.30
-34.95
-38.02
-40.57
-43.06
-46.16
-50.50
-56.35
-63.42
-70.85
-77.36
-81.49
-81.87
-77.55
-68.16
-54.15
-36.64
-17.33
1.93
19.48
34.13
45.32
53.07
57.78
60.01
60.31
59.06
56.48
52.75
48.09
42.88
37.67
33.08
29.69
27.88
27.79
29.35
32.40
36.60
41.48
46.35
50.44
53.02
53.80
52.90
50.89
48.41
45.87
43.28
40.41
37.03
33.17
29.14
25.30
21.88
18.79
15.79
12.68
9.48
6.45
3.88
1.91
0.38
-1.04
-2.67
-4.64
-6.83
-8.95
-10.76
-12.19
-13.35
-14.53
-16.03
-18.12
-20.94
-24.53
-28.75
-33.34
-37.94
-42.22
-46.02
-49.44
-52.89
-56.97
-62.30
-69.20
-77.35
-85.63
-92.23
-94.98
-92.06
-82.56
-66.93
-46.89
-25.04
-4.16
13.54
26.77
35.32
39.77
41.13
40.38
38.24
35.00
30.62
25.02
18.23
10.66
3.02
-3.85
-9.07
-11.95
-11.99
-8.88
-2.54
6.87
18.85
32.48
46.57
59.80
70.99
79.41
84.81
87.37
87.48
85.53
81.74
76.26
69.32
61.37
53.18
45.60
39.40
34.93
32.08
30.43
29.43
28.70
28.01
27.35
26.69
25.93
24.92
23.54
21.77
19.68
17.47
15.28
13.21
11.28
9.44
7.68
5.99
4.41
3.01
1.84
0.89
0.08
-0.74
-1.76
-3.14
-4.87
-6.84
-8.79
-10.46
-11.73
-12.66
-13.52
-14.62
-16.18
-18.23
-20.58
-22.90
-24.91
-26.54
-27.94
-29.45
-31.41
-34.04
-37.34
-41.15
-45.19
-49.18
-52.91
-56.35
-59.67
-63.26
-67.63
-73.23
-80.07
-87.53
-94.28
-98.51
-98.38
-92.55
-80.69
-63.57
-42.92
-20.97
0.08
18.49
33.21
43.86
50.61
53.96
54.58
53.10
50.11
46.10
41.44
36.42
31.24
26.15
21.45
17.53
14.89
14.02
15.31
18.84
24.28
30.83
37.44
43.00
46.70
48.23
47.79
45.95
43.36
40.55
37.82
35.20
32.62
29.94
27.05
23.86
20.43
16.88
13.43
10.35
7.80
5.79
4.20
2.86
1.64
0.55
-0.34
-0.94
-1.28
-1.53
-1.96
-2.83
-4.33
-6.46
-9.04
-11.77
-14.39
-16.77
-18.98
-21.24
-23.84
-26.97
-30.62
-34.60
-38.62
-42.46
-46.02
-49.41
-52.85
-56.67
-61.20
-66.70
-73.19
-80.23
-86.73
-91.05
-91.31
-85.96
-74.39
-57.23
-36.37
-14.32
6.39
23.92
37.40
46.82
52.73
55.72
56.34
54.94
51.87
47.52
42.33
36.70
30.97
25.45
20.52
16.67
14.48
14.47
16.84
21.36
27.38
33.99
40.22
45.31
48.79
50.47
50.43
48.98
46.51
43.49
40.27
37.11
34.09
31.19
28.24
25.14
21.83
18.40
15.12
12.36
10.43
9.48
9.40
9.86
10.45
10.83
10.89
10.70
10.42
10.20
10.03
9.83
9.44
8.79
7.82
6.61
5.27
3.97
2.88
2.09
1.56
1.11
0.50
-0.48
-1.86
-3.49
-5.11
-6.50
-7.58
-8.45
-9.36
-10.60
-12.37
-14.69
-17.39
-20.20
-22.80
-24.98
-26.69
-28.07
-29.37
-30.88
-32.84
-35.39
-38.54
-42.14
-45.95
-49.60
-52.79
-55.40
-57.65
-60.11
-63.53
-68.48
-74.98
-82.24
-88.73
-92.46
-91.52
-84.64
-71.66
-53.59
-32.42
-10.57
9.74
26.91
40.13
49.29
54.69
56.81
56.23
53.50
49.26
44.09
38.48
32.80
27.26
22.10
17.61
14.24
12.47
12.71
15.06
19.30
24.85
30.92
36.66
41.34
44.42
45.59
44.90
42.66
39.41
35.73
32.12
28.84
25.92
23.18
20.42
17.55
14.63
11.78
9.11
6.65
4.39
2.35
0.59
-0.75
-1.61
-2.05
-2.31
-2.72
-3.56
-4.96
-6.86
-9.00
-11.05
-12.82
-14.27
-15.60
-17.14
-19.20
-21.96
-25.37
-29.15
-32.94
-36.40
-39.40
-42.09
-44.87
-48.30
-52.83
-58.65
-65.40
-72.10
-77.24
-79.11
-76.30
-68.10
-54.85
-37.80
-18.82
0.13
17.33
31.59
42.27
49.27
52.82
53.42
51.67
48.20
43.53
38.11
32.30
26.40
20.77
15.81
11.94
9.54
8.88
10.12
13.23
17.92
23.69
29.79
35.40
39.81
42.55
43.49
42.83
40.95
38.32
35.39
32.47
29.70
27.04
24.34
21.43
18.31
15.13
12.18
9.79
8.14
7.17
6.61
6.14
5.50
4.69
3.81
3.12
2.71
2.63
2.77
3.02
3.29
3.54
3.74
3.84
3.75
3.30
2.42
1.11
-0.48
-2.12
-3.61
-4.90
-6.05
-7.18
-8.42
-9.77
-11.12
-12.37
-13.50
-14.56
-15.69
-17.06
-18.71
-20.59
-22.56
-24.41
-26.00
-27.28
-28.37
-29.53
-31.08
-33.29
-36.26
-39.86
-43.78
-47.61
-51.07
-54.05
-56.74
-59.54
-63.01
-67.64
-73.61
-80.59
-87.57
-92.88
-94.59
-91.06
-81.50
-66.28
-46.91
-25.59
-4.68
13.94
29.07
40.21
47.41
51.03
51.69
50.16
47.28
43.73
39.92
35.91
31.59
26.93
22.24
18.16
15.45
14.69
16.05
19.32
23.94
29.31
34.82
39.90
43.93
46.38
46.88
45.46
42.55
38.87
35.15
31.89
29.16
26.77
24.39
21.76
18.86
15.82
12.84
10.05
7.49
5.15
3.02
1.23
-0.08
-0.82
-1.13
-1.40
-2.10
-3.58
-5.88
-8.67
-11.42
-13.67
-15.27
-16.45
-17.70
-19.56
-22.32
-25.95
-30.09
-34.23
-37.92
-40.93
-43.33
-45.49
-47.97
-51.42
-56.30
-62.67
-69.92
-76.75
-81.36
-81.95
-77.24
-66.94
-51.85
-33.61
-14.30
4.15
20.30
33.29
42.80
48.79
51.51
51.33
48.78
44.53
39.22
33.48
27.77
22.50
18.03
14.71
12.90
12.85
14.64
18.09
22.80
28.20
33.71
38.78
42.92
45.72
46.91
46.43
44.48
41.47
37.92
34.30
30.87
27.70
24.74
21.92
19.30
16.95
15.00
13.48
12.32
11.37
10.53
9.76
9.04
8.47
8.08
7.89
7.88
8.05
8.31
8.55
8.63
8.44
7.95
7.25
6.48
5.75
5.08
4.39
3.63
2.75
1.79
0.78
-0.34
-1.71
-3.42
-5.46
-7.60
-9.47
-10.77
-11.43
-11.68
-11.92
-12.55
-13.77
-15.59
-17.81
-20.18
-22.50
-24.68
-26.68
-28.57
-30.49
-32.60
-35.08
-38.04
-41.45
-45.14
-48.88
-52.43
-55.69
-58.75
-61.90
-65.54
-70.13
-75.98
-83.04
-90.68
-97.62
-102.07
-102.11
-96.33
-84.28
-66.82
-45.88
-23.92
-3.28
14.43
28.47
38.77
45.61
49.32
50.23
48.74
45.43
41.04
36.34
31.90
28.05
24.90
22.53
21.15
21.13
22.82
26.38
31.52
37.57
43.63
48.82
52.57
54.62
55.02
53.98
51.79
48.73
45.16
41.42
37.81
34.44
31.24
28.00
24.61
21.16
17.94
15.28
13.36
12.05
11.03
9.98
8.75
7.50
6.44
5.70
5.14
4.46
3.35
1.71
-0.28
-2.34
-4.24
-6.03
-7.90
-10.12
-12.77
-15.82
-19.14
-22.66
-26.39
-30.32
-34.33
-38.22
-41.71
-44.79
-47.77
-51.25
-55.88
-61.96
-69.24
-76.74
-82.95
-86.08
-84.53
-77.28
-64.32
-46.71
-26.40
-5.77
12.98
28.30
39.48
46.57
50.16
50.99
49.81
47.22
43.67
39.49
34.92
30.14
25.37
20.92
17.27
14.98
14.59
16.42
20.43
26.15
32.73
39.14
44.37
47.73
48.96
48.19
45.86
42.49
38.49
34.11
29.45
24.52
19.36
14.10
8.94
4.14
-0.13
-3.77
-6.88
-9.69
-12.57
-15.82
-19.60
-23.78
-27.96
-31.61
-34.33
-36.14
-37.54
-39.48
-42.96
-48.51
-55.91
-63.97
-70.80
-74.30
-72.77
-65.44
-52.67
-35.89
-17.16
1.35
17.86
31.28
41.24
47.88
51.63
52.97
52.31
50.05
46.56
42.22
37.39
32.43
27.64
23.41
20.14
18.28
18.15
19.82
23.00
27.11
31.39
35.09
37.70
38.93
38.76
37.29
34.71
31.23
27.11
22.64
18.10
13.68
9.38
5.04
0.42
-4.71
-10.29
-16.03
-21.38
-25.83
-29.04
-31.10
-32.47
-33.88
-36.16
-39.90
-45.26
-51.78
-58.34
-63.35
-65.13
-62.42
-54.79
-42.88
-28.15
-12.48
2.32
14.95
24.71
31.55
35.92
38.55
40.28
41.75
43.12
44.02
43.71
41.53
37.31
31.55
25.34
19.85
15.96
13.92
13.52
14.30
15.88
17.97
20.28
22.39
23.74
23.75
22.05
18.67
14.04
8.86
3.84
-0.48
-3.84
-6.29
-8.10
-9.59
-11.07
-12.72
-14.61
-16.74
-19.20
-22.15
-25.95
-30.92
-37.20
-44.46
-51.88
-58.14
-61.77
-61.55
-56.91
-48.09
-36.12
-22.48
-8.64
4.23
15.42
24.57
31.52
36.14
38.32
37.96
35.14
30.14
23.42
15.58
7.28
-0.71
-7.62
-12.68
-15.33
-15.29
-12.67
-8.01
-2.09
4.11
9.71
14.00
16.64
17.62
17.21
15.87
14.03
12.02
9.97
7.81
5.33
2.33
-1.29
-5.50
-10.07
-14.66
-18.94
-22.75
-26.19
-29.68
-33.79
-38.97
-45.26
-52.00
-57.84
-61.00
-59.80
-53.19
-41.22
-25.05
-6.69
11.61
27.91
40.96
50.35
56.26
59.17
59.56
57.81
54.19
48.97
42.55
35.39
28.09
21.29
15.60
11.53
9.49
9.61
11.78
15.52
20.14
24.84
28.86
31.65
32.88
32.44
30.40
26.98
22.55
17.57
12.55
7.85
3.61
-0.35
-4.39
-8.93
-14.16
-19.98
-26.01
-31.71
-36.60
-40.45
-43.32
-45.55
-47.72
-50.49
-54.53
-60.33
-67.96
-76.79
-85.37
-91.58
-93.09
-88.15
-76.17
-58.10
-36.10
-13.00
8.62
26.91
41.02
50.90
56.96
59.74
59.84
57.81
54.24
49.67
44.57
39.31
34.27
29.85
26.60
25.02
25.40
27.68
31.38
35.71
39.88
43.28
45.55
46.56
46.32
44.82
42.13
38.32
33.61
28.32
22.84
17.48
12.41
7.60
2.93
-1.76
-6.56
-11.48
-16.39
-21.12
-25.47
-29.23
-32.29
-34.66
-36.54
-38.43
-41.02
-45.07
-51.04
-58.70
-66.90
-73.67
-76.74
-74.18
-65.11
-50.00
-30.57
-9.26
11.47
29.66
44.16
54.61
61.20
64.41
64.80
62.91
59.23
54.23
48.40
42.26
36.36
31.23
27.33
24.96
24.23
25.05
27.21
30.39
34.18
38.12
41.75
44.63
46.40
46.90
46.15
44.38
41.87
38.93
35.77
32.53
29.27
26.02
22.80
19.62
16.54
13.72
11.33
9.55
8.46
7.93
7.68
7.34
6.61
5.41
3.96
2.71
2.07
2.26
3.17
4.36
5.29
5.56
5.08
4.08
2.94
1.92
1.08
0.27
-0.67
-1.73
-2.74
-3.41
-3.61
-3.43
-3.19
-3.23
-3.70
-4.47
-5.21
-5.61
-5.50
-5.04
-4.56
-4.39
-4.69
-5.35
-6.11
-6.71
-7.06
-7.26
-7.53
-8.00
-8.59
-9.08
-9.19
-8.87
-8.27
-7.75
-7.62
-7.96
-8.64
-9.33
-9.74
-9.79
-9.60
-9.40
-9.41
-9.70
-10.23
-10.84
-11.36
-11.64
-11.60
-11.25
-10.73
-10.24
-10.02
-10.22
-10.79
-11.51
-12.09
-12.35
-12.29
-12.12
-12.12
-12.42
-13.01
-13.74
-14.48
-15.15
-15.82
-16.56
-17.46
-18.49
-19.61
-20.77
-21.94
-23.13
-24.30
-25.40
-26.36
-27.20
-27.99
-28.84
-29.81
-30.96
-32.23
-33.62
-35.19
-37.07
-39.45
-42.49
-46.24
-50.54
-55.03
-59.05
-61.74
-62.22
-59.67
-53.70
-44.41
-32.53
-19.22
-5.82
6.48
16.92
25.23
31.49
36.00
39.00
40.62
40.84
39.63
37.06
33.41
29.04
24.33
19.60
15.19
11.43
8.73
7.38
7.43
8.45
9.63
10.14
9.45
7.60
5.14
2.81
1.19
0.47
0.52
1.14
2.27
4.01
6.48
9.58
12.89
15.71
17.29
17.16
15.35
12.36
9.02
6.19
4.45
3.96
4.46
5.41
6.26
6.56
6.11
4.89
3.01
0.67
-1.94
-4.62
-7.24
-9.71
-11.98
-14.04
-15.92
-17.65
-19.30
-20.93
-22.54
-24.18
-25.78
-27.31
-28.74
-30.13
-31.64
-33.56
-36.19
-39.66
-43.72
-47.74
-50.67
-51.48
-49.37
-44.13
-36.16
-26.32
-15.57
-4.76
5.48
14.70
22.48
28.42
32.23
33.84
33.47
31.65
29.00
26.04
23.07
20.12
17.12
13.98
10.80
7.75
5.13
3.17
2.05
1.86
2.65
4.36
6.78
9.61
12.45
14.88
16.62
17.52
17.61
17.02
15.96
14.67
13.43
12.41
11.73
11.24
10.65
9.65
8.11
6.14
4.08
2.30
0.96
-0.01
-0.85
-1.85
-3.06
-4.36
-5.47
-6.15
-6.37
-6.25
-6.06
-6.03
-6.27
-6.70
-7.13
-7.38
-7.44
-7.44
-7.58
-8.03
-8.79
-9.75
-10.72
-11.66
-12.59
-13.52
-14.45
-15.22
-15.77
-16.12
-16.56
-17.48
-19.13
-21.53
-24.36
-27.24
-29.87
-32.18
-34.33
-36.48
-38.80
-41.37
-44.23
-47.38
-50.63
-53.51
-55.28
-55.07
-52.25
-46.64
-38.61
-28.95
-18.53
-8.13
1.69
10.53
18.06
24.02
28.27
30.82
31.95
32.02
31.38
30.29
28.78
26.77
24.13
20.86
17.20
13.59
10.58
8.60
7.85
8.22
9.44
11.19
13.27
15.53
17.86
20.06
21.88
23.10
23.58
23.38
22.62
21.55
20.30
18.96
17.55
16.06
14.46
12.71
10.81
8.80
6.74
4.78
3.01
1.50
0.24
-0.82
-1.79
-2.70
-3.62
-4.59
-5.66
-6.88
-8.28
-9.84
-11.49
-13.12
-14.69
-16.23
-17.84
-19.63
-21.71
-24.13
-26.86
-29.81
-32.80
-35.62
-38.11
-40.30
-42.44
-45.00
-48.50
-53.17
-58.72
-64.30
-68.59
-70.27
-68.34
-62.43
-52.89
-40.57
-26.65
-12.36
1.18
13.11
22.79
29.92
34.53
36.96
37.75
37.46
36.58
35.34
33.74
31.58
28.69
24.99
20.67
16.09
11.74
8.14
5.73
4.81
5.49
7.65
11.01
15.11
19.46
23.56
27.04
29.65
31.28
31.96
31.85
31.16
30.13
28.95
27.76
26.52
25.08
23.31
21.10
18.52
15.79
13.15
10.84
8.93
7.40
6.08
4.80
3.46
2.09
0.73
-0.55
-1.75
-2.97
-4.35
-5.99
-7.88
-9.90
-11.86
-13.61
-15.20
-16.79
-18.68
-21.07
-24.01
-27.31
-30.70
-33.89
-36.76
-39.40
-42.07
-45.08
-48.76
-53.35
-58.89
-65.19
-71.64
-77.27
-80.78
-80.81
-76.38
-67.18
-53.86
-37.81
-20.90
-4.85
9.13
20.55
29.49
36.23
40.99
43.81
44.66
43.62
41.03
37.43
33.38
29.26
25.25
21.48
18.12
15.58
14.40
15.05
17.74
22.28
27.99
33.97
39.36
43.49
46.18
47.54
47.96
47.78
47.22
46.29
44.88
42.82
40.10
36.85
33.33
29.88
26.76
24.17
22.17
20.74
19.78
19.17
18.79
18.49
18.17
17.72
17.11
16.38
15.62
14.91
14.29
13.75
13.21
12.62
11.95
11.15
10.16
8.89
7.33
5.51
3.62
1.87
0.43
-0.65
-1.56
-2.62
-4.21
-6.58
-9.70
-13.27
-16.84
-19.98
-22.51
-24.58
-26.61
-29.10
-32.36
-36.41
-40.92
-45.46
-49.62
-53.23
-56.42
-59.57
-63.25
-68.00
-74.17
-81.58
-89.46
-96.36
-100.47
-100.03
-93.88
-81.83
-64.78
-44.53
-23.32
-3.34
13.68
26.69
35.43
40.24
41.92
41.40
39.47
36.56
32.76
27.91
21.95
15.06
7.87
1.26
-3.83
-6.69
-7.01
-5.00
-1.28
3.20
7.31
9.99
10.60
9.32
7.37
6.83
9.95
18.16
31.30
47.42
63.47
76.47
84.74
88.41
89.13
89.19
90.58
94.51
101.53
111.75
125.00
140.70
157.38
172.69
183.70
187.86
183.96
172.56
155.76
136.32
116.61
98.05
81.08
65.52
51.07
37.54
24.83
12.85
1.51
-9.12
-18.69
-26.54
-31.91
-34.41
-34.25
-32.24
-29.50
-27.09
-25.63
-25.13
-25.10
-24.72
-23.19
-19.95
-14.94
-8.59
-1.67
4.90
10.31
13.96
15.41
14.45
11.13
5.92
-0.21
-5.92
-9.90
-11.37
-10.44
-8.09
-5.66
-4.27
-4.35
-5.55
-7.08
-8.21
-8.68
-8.74
-8.88
-9.51
-10.68
-12.09
-13.34
-14.26
-15.01
-15.97
-17.50
-19.69
-22.29
-24.90
-27.20
-29.19
-31.17
-33.50
-36.37
-39.56
-42.41
-44.17
-44.28
-42.77
-40.23
-37.56
-35.58
-34.63
-34.43
-34.34
-33.70
-32.18
-29.89
-27.21
-24.50
-21.85
-19.09
-16.03
-12.67
-9.32
-6.43
-4.43
-3.41
-3.16
-3.23
-3.15
-2.63
-1.57
-0.03
2.03
4.76
8.46
13.40
19.71
27.18
35.33
43.54
51.26
58.17
64.15
69.29
73.72
77.57
80.99
84.14
87.20
90.25
93.23
95.91
98.05
99.50
100.08
99.41
96.52
89.84
77.57
58.29
31.62
-1.62
-39.74
-80.76
-122.77
-163.98
-202.48
-236.10
-262.67
-280.57
-289.40
-290.06
-284.34
-274.21
-261.15
-245.96
-229.04
-210.78
-191.81
-173.00
-155.12
-138.68
-123.82
-110.45
-98.42
-87.62
-77.99
-69.45
-61.84
-55.00
-48.81
-43.20
-38.22
-33.87
-30.05
-26.59
-23.36
-20.38
-17.92
-16.44
-16.26
-17.39
-19.43
-21.73
-23.74
-25.27
-26.59
-28.27
-30.94
-35.04
-40.80
-48.20
-56.89
-66.00
-74.05
-79.04
-78.93
-72.30
-58.91
-40.01
-17.92
4.62
25.25
42.48
55.75
65.24
71.41
74.74
75.61
74.29
71.04
66.18
60.22
53.83
47.79
42.97
40.06
39.52
41.47
45.69
51.62
58.49
65.44
71.62
76.27
78.88
79.22
77.41
73.85
69.15
63.89
58.48
53.14
47.87
42.54
37.01
31.17
24.97
18.47
11.82
5.21
-1.16
-7.12
-12.59
-17.50
-21.85
-25.72
-29.39
-33.36
-38.34
-44.93
-53.19
-62.27
-70.37
-75.09
-74.19
-66.36
-51.72
-31.81
-9.07
13.84
34.77
52.32
65.90
75.50
81.39
83.97
83.57
80.56
75.35
68.41
60.45
52.31
44.93
39.25
36.00
35.61
38.14
43.21
50.07
57.72
65.04
70.98
74.82
76.28
75.51
73.02
69.32
64.83
59.73
54.08
47.99
41.68
35.49
29.67
24.27
19.10
13.76
7.98
1.75
-4.65
-10.69
-15.94
-20.14
-23.35
-25.88
-28.19
-30.79
-34.26
-39.14
-45.83
-54.24
-63.49
-71.81
-76.78
-76.02
-68.01
-52.81
-32.11
-8.78
14.15
34.31
50.47
62.41
70.51
75.22
76.79
75.38
71.25
64.86
56.95
48.31
39.72
31.89
25.43
20.92
18.85
19.50
22.78
28.19
34.92
42.00
48.50
53.63
56.89
58.05
57.08
54.21
49.74
44.11
37.76
31.15
24.64
18.53
12.95
7.84
2.99
-1.88
-6.98
-12.28
-17.57
-22.45
-26.52
-29.54
-31.52
-32.78
-33.84
-35.38
-38.10
-42.56
-48.84
-56.29
-63.44
-68.16
-68.28
-62.30
-50.00
-32.56
-12.25
8.34
26.98
42.25
53.60
61.14
65.20
66.19
64.40
60.16
53.84
45.92
36.99
27.72
18.90
11.34
5.82
2.93
2.96
5.81
11.02
17.82
25.25
32.25
37.84
41.30
42.24
40.73
37.21
32.38
26.98
21.58
16.42
11.36
6.01
0.03
-6.75
-14.11
-21.48
-28.17
-33.60
-37.57
-40.38
-42.73
-45.49
-49.42
-54.80
-61.21
-67.41
-71.58
-71.79
-66.59
-55.61
-39.75
-20.96
-1.57
16.34
31.45
43.21
51.65
57.00
59.48
59.23
56.37
51.18
44.08
35.66
26.62
17.79
9.98
3.95
0.26
-0.79
0.75
4.52
9.89
16.03
22.02
27.00
30.27
31.44
30.56
28.01
24.37
20.23
15.91
11.39
6.42
0.70
-5.84
-12.98
-20.17
-26.80
-32.41
-36.87
-40.45
-43.74
-47.49
-52.41
-58.76
-66.17
-73.37
-78.43
-79.16
-73.92
-62.22
-45.04
-24.55
-3.43
15.93
32.02
44.29
52.93
58.37
60.92
60.74
57.92
52.69
45.60
37.40
28.98
21.11
14.43
9.37
6.26
5.30
6.52
9.68
14.25
19.37
24.18
27.92
30.10
30.55
29.25
26.35
22.18
17.24
12.10
7.25
2.84
-1.41
-6.05
-11.59
-18.10
-25.20
-32.13
-38.15
-42.85
-46.30
-48.98
-51.50
-54.53
-58.60
-63.98
-70.49
-77.26
-82.65
-84.52
-80.88
-70.60
-54.04
-33.00
-10.24
11.32
29.52
43.32
52.72
58.38
61.08
61.37
59.57
55.90
50.64
44.30
37.49
30.87
25.00
20.30
17.08
15.58
15.91
18.02
21.58
25.99
30.47
34.23
36.68
37.48
36.54
33.97
29.98
24.87
19.09
13.11
7.38
2.23
-2.26
-6.24
-9.98
-13.79
-17.93
-22.53
-27.54
-32.71
-37.70
-42.10
-45.66
-48.33
-50.38
-52.30
-54.75
-58.36
-63.59
-70.41
-78.03
-84.77
-88.31
-86.35
-77.41
-61.55
-40.45
-16.93
5.98
25.90
41.60
52.89
60.23
64.23
65.40
64.15
60.91
56.21
50.71
45.06
39.80
35.27
31.68
29.16
27.82
27.84
29.37
32.37
36.59
41.43
46.09
49.72
51.62
51.50
49.51
46.16
42.09
37.88
33.88
30.19
26.77
23.57
20.60
17.91
15.56
13.56
11.89
10.51
9.40
8.56
7.98
7.63
7.43
7.27
7.08
6.90
6.79
6.83
7.07
7.44
7.78
7.89
7.58
6.76
5.45
3.80
2.08
0.55
-0.62
-1.44
-2.04
-2.56
-3.09
-3.58
-3.97
-4.25
-4.52
-4.99
-5.83
-7.05
-8.45
-9.72
-10.56
-10.86
-10.70
-10.30
-9.90
-9.67
-9.75
-10.16
-10.89
-11.83
-12.81
-13.62
-14.16
-14.43
-14.56
-14.74
-15.13
-15.81
-16.77
-17.93
-19.22
-20.62
-22.13
-23.74
-25.45
-27.24
-29.06
-30.91
-32.80
-34.77
-36.90
-39.27
-41.87
-44.66
-47.53
-50.37
-53.14
-55.86
-58.61
-61.55
-64.80
-68.58
-73.18
-78.82
-85.39
-92.20
-97.71
-99.82
-96.48
-86.39
-69.66
-47.94
-23.85
-0.27
20.53
37.28
49.61
57.74
62.06
63.01
61.14
57.18
52.04
46.58
41.34
36.48
31.83
27.24
22.82
19.04
16.59
16.08
17.77
21.43
26.46
32.05
37.38
41.74
44.63
45.78
45.16
43.03
39.85
36.14
32.43
29.05
26.15
23.66
21.32
18.86
16.03
12.74
9.13
5.49
2.21
-0.39
-2.16
-3.19
-3.65
-3.78
-3.80
-3.83
-4.03
-4.48
-5.25
-6.31
-7.52
-8.72
-9.85
-10.97
-12.21
-13.69
-15.37
-17.08
-18.60
-19.87
-21.04
-22.45
-24.36
-26.95
-30.10
-33.53
-36.97
-40.15
-42.94
-45.38
-47.68
-50.24
-53.58
-58.14
-63.95
-70.48
-76.49
-80.29
-80.15
-74.88
-64.28
-49.25
-31.57
-13.36
3.49
17.78
29.04
37.35
43.04
46.40
47.67
47.11
45.00
41.73
37.63
32.90
27.65
21.97
16.06
10.36
5.50
2.12
0.72
1.48
4.22
8.34
13.02
17.34
20.56
22.37
22.87
22.50
21.72
20.76
19.56
17.76
15.07
11.41
7.02
2.43
-1.85
-5.57
-8.78
-11.79
-14.97
-18.50
-22.29
-26.05
-29.43
-32.16
-34.25
-35.94
-37.60
-39.69
-42.55
-46.34
-50.87
-55.47
-59.03
-60.13
-57.54
-50.61
-39.63
-25.79
-10.83
3.54
16.08
26.20
33.87
39.33
42.74
44.18
43.68
41.35
37.45
32.37
26.53
20.27
13.88
7.70
2.21
-2.03
-4.41
-4.58
-2.55
1.23
5.94
10.72
14.81
17.79
19.49
19.94
19.29
17.69
15.39
12.67
9.84
7.05
4.25
1.18
-2.52
-7.07
-12.46
-18.36
-24.25
-29.56
-33.91
-37.15
-39.53
-41.56
-43.91
-47.15
-51.47
-56.54
-61.40
-64.72
-65.07
-61.42
-53.38
-41.40
-26.62
-10.67
4.79
18.42
29.44
37.69
43.43
47.02
48.72
48.55
46.44
42.41
36.78
30.13
23.19
16.60
10.79
6.02
2.50
0.51
0.32
2.10
5.71
10.62
15.96
20.77
24.21
25.77
25.41
23.45
20.46
17.05
13.70
10.62
7.73
4.77
1.42
-2.60
-7.39
-12.87
-18.81
-24.82
-30.46
-35.36
-39.35
-42.59
-45.57
-48.97
-53.34
-58.82
-64.84
-70.11
-72.92
-71.63
-65.21
-53.66
-38.05
-20.24
-2.27
14.13
27.89
38.67
46.57
51.84
54.72
55.37
53.99
50.82
46.24
40.62
34.33
27.75
21.33
15.68
11.45
9.19
9.15
11.21
14.83
19.27
23.73
27.57
30.32
31.70
31.58
30.01
27.14
23.31
18.98
14.61
10.51
6.80
3.33
-0.23
-4.26
-8.97
-14.36
-20.20
-26.10
-31.64
-36.54
-40.78
-44.57
-48.32
-52.60
-57.88
-64.48
-72.21
-80.24
-87.04
-90.66
-89.16
-81.33
-67.21
-48.11
-26.35
-4.44
15.53
32.28
45.34
54.73
60.69
63.47
63.50
61.33
57.63
53.08
48.13
43.06
38.10
33.55
29.91
27.81
27.73
29.84
33.91
39.33
45.32
51.03
55.75
58.93
60.32
59.92
58.06
55.21
51.93
48.63
45.52
42.54
39.52
36.33
32.95
29.51
26.28
23.50
21.32
19.75
18.63
17.77
16.93
15.97
14.87
13.74
12.74
12.04
11.70
11.67
11.82
11.97
12.01
11.88
11.61
11.16
10.54
9.71
8.68
7.48
6.17
4.80
3.39
1.94
0.45
-0.99
-2.28
-3.33
-4.16
-4.84
-5.56
-6.45
-7.52
-8.69
-9.79
-10.78
-11.73
-12.88
-14.48
-16.71
-19.50
-22.63
-25.78
-28.70
-31.34
-33.86
-36.55
-39.68
-43.37
-47.56
-52.04
-56.50
-60.70
-64.53
-68.14
-71.89
-76.35
-82.17
-89.67
-98.53
-107.55
-114.58
-117.07
-112.83
-100.85
-81.74
-57.72
-31.85
-7.16
14.12
30.93
43.22
51.53
56.59
59.03
59.33
57.90
55.17
51.49
47.19
42.52
37.74
33.19
29.36
26.81
26.05
27.36
30.71
35.70
41.63
47.66
52.98
56.98
59.29
59.86
58.89
56.78
54.00
50.95
47.81
44.58
41.19
37.56
33.83
30.22
27.00
24.28
22.02
20.01
18.11
16.31
14.76
13.68
13.12
12.94
12.81
12.36
11.40
10.04
8.58
7.40
6.71
6.47
6.45
6.35
5.97
5.31
4.45
3.56
2.72
1.89
0.98
-0.10
-1.37
-2.78
-4.24
-5.64
-6.86
-7.87
-8.69
-9.45
-10.35
-11.67
-13.59
-16.20
-19.34
-22.67
-25.79
-28.40
-30.52
-32.39
-34.43
-37.02
-40.29
-44.11
-48.17
-52.10
-55.66
-58.80
-61.67
-64.67
-68.32
-73.21
-79.69
-87.60
-95.97
-102.99
-106.38
-104.06
-94.85
-78.97
-57.99
-34.34
-10.66
10.85
28.75
42.37
51.61
56.78
58.47
57.49
54.70
50.87
46.54
41.94
37.11
32.11
27.17
22.73
19.36
17.55
17.65
19.76
23.70
29.02
35.01
40.77
45.50
48.58
49.81
49.40
47.80
45.53
42.98
40.33
37.56
34.59
31.36
27.84
24.07
20.12
16.05
12.01
8.19
4.82
2.08
0.03
-1.44
-2.59
-3.74
-5.13
-6.82
-8.74
-10.67
-12.45
-14.00
-15.42
-16.92
-18.71
-20.96
-23.75
-26.98
-30.47
-33.90
-37.00
-39.62
-41.82
-43.96
-46.61
-50.40
-55.84
-63.02
-71.40
-79.75
-86.23
-88.79
-85.70
-76.15
-60.57
-40.69
-19.06
1.64
19.35
33.08
42.80
49.12
52.73
54.10
53.39
50.68
46.23
40.52
34.21
27.92
22.13
17.14
13.22
10.71
10.02
11.45
14.98
20.20
26.27
32.20
37.06
40.24
41.56
41.23
39.73
37.51
34.87
31.92
28.64
24.97
21.00
16.95
13.08
9.54
6.28
3.11
-0.20
-3.70
-7.27
-10.58
-13.37
-15.53
-17.20
-18.69
-20.33
-22.37
-24.85
-27.65
-30.60
-33.56
-36.57
-39.83
-43.71
-48.65
-54.95
-62.48
-70.46
-77.40
-81.43
-80.74
-74.27
-62.08
-45.42
-26.38
-7.24
10.14
24.63
35.87
43.99
49.28
51.95
52.15
50.07
46.01
40.45
33.92
26.98
20.11
13.85
8.77
5.52
4.64
6.37
10.42
16.09
22.38
28.31
33.14
36.45
38.06
37.96
36.25
33.09
28.74
23.55
17.89
12.10
6.45
1.04
-4.13
-9.15
-14.18
-19.26
-24.26
-28.85
-32.62
-35.25
-36.72
-37.43
-38.16
-39.84
-43.19
-48.38
-54.84
-61.22
-65.62
-66.23
-61.73
-51.88
-37.55
-20.45
-2.61
14.19
28.75
40.52
49.44
55.62
59.27
60.54
59.62
56.68
51.94
45.67
38.26
30.30
22.61
16.11
11.63
9.64
10.14
12.72
16.71
21.42
26.24
30.67
34.24
36.50
37.06
35.73
32.55
27.87
22.18
15.98
9.75
3.77
-1.84
-7.10
-12.12
-17.08
-22.07
-27.12
-32.04
-36.58
-40.48
-43.61
-46.07
-48.14
-50.26
-52.95
-56.81
-62.22
-69.20
-77.00
-84.02
-87.97
-86.58
-78.40
-63.48
-43.48
-21.18
0.50
19.30
34.09
44.80
51.96
56.25
58.19
58.14
56.36
53.08
48.60
43.25
37.46
31.83
27.10
24.00
23.08
24.48
27.93
32.77
38.16
43.29
47.46
50.20
51.25
50.65
48.63
45.59
41.93
37.89
33.56
28.87
23.85
18.62
13.51
8.81
4.68
1.05
-2.31
-5.57
-8.69
-11.48
-13.71
-15.36
-16.65
-18.01
-19.90
-22.50
-25.79
-29.55
-33.55
-37.63
-41.75
-45.91
-50.16
-54.65
-59.73
-65.95
-73.87
-83.58
-94.22
-103.78
-109.46
-108.50
-99.22
-81.76
-58.15
-31.69
-5.84
16.73
34.68
47.86
56.89
62.49
65.22
65.46
63.58
60.09
55.72
51.19
47.14
43.89
41.56
40.20
39.87
40.69
42.70
45.78
49.55
53.47
56.94
59.47
60.79
60.83
59.61
57.25
53.92
49.88
45.47
41.02
36.82
33.01
29.63
26.68
24.18
22.13
20.53
19.32
18.38
17.63
16.99
16.42
15.91
15.49
15.15
14.92
14.76
14.62
14.40
13.97
13.26
12.27
11.08
9.80
8.56
7.41
6.33
5.29
4.25
3.20
2.16
1.16
0.26
-0.51
-1.13
-1.66
-2.18
-2.81
-3.60
-4.54
-5.55
-6.50
-7.23
-7.68
-7.82
-7.77
-7.75
-8.00
-8.74
-10.04
-11.81
-13.80
-15.74
-17.43
-18.82
-20.07
-21.39
-23.02
-25.04
-27.43
-30.00
-32.53
-34.90
-37.17
-39.62
-42.61
-46.37
-50.88
-55.75
-60.42
-64.42
-67.54
-70.03
-72.48
-75.70
-80.58
-87.67
-96.88
-107.11
-116.17
-121.12
-119.15
-108.56
-89.50
-64.09
-35.68
-7.86
16.57
36.07
50.25
59.41
64.15
65.22
63.43
59.74
55.13
50.36
45.83
41.58
37.49
33.57
30.10
27.64
26.78
27.94
31.16
36.06
41.95
47.99
53.33
57.27
59.39
59.55
57.95
54.98
51.18
47.02
42.85
38.84
35.03
31.43
28.02
24.82
21.83
19.07
16.57
14.40
12.67
11.45
10.75
10.50
10.55
10.73
10.91
11.01
10.97
10.79
10.48
10.03
9.48
8.86
8.16
7.43
6.69
5.98
5.29
4.60
3.78
2.72
1.36
-0.30
-2.14
-4.00
-5.73
-7.29
-8.67
-9.89
-10.96
-11.91
-12.81
-13.83
-15.19
-17.01
-19.29
-21.85
-24.42
-26.74
-28.68
-30.32
-31.89
-33.73
-36.12
-39.16
-42.75
-46.62
-50.44
-53.92
-56.96
-59.62
-62.14
-64.91
-68.40
-73.09
-79.17
-86.29
-93.31
-98.31
-99.06
-93.74
-81.63
-63.45
-41.27
-17.77
4.46
23.58
38.68
49.63
56.72
60.40
61.14
59.45
55.88
50.99
45.34
39.34
33.34
27.54
22.19
17.62
14.26
12.66
13.17
15.88
20.38
25.86
31.34
35.96
39.23
41.10
41.78
41.52
40.47
38.68
36.21
33.23
30.02
26.85
23.79
20.75
17.52
14.03
10.35
6.73
3.40
0.52
-1.98
-4.26
-6.52
-8.88
-11.36
-13.86
-16.18
-18.12
-19.56
-20.57
-21.41
-22.51
-24.27
-26.93
-30.40
-34.32
-38.23
-41.77
-44.86
-47.76
-50.96
-55.03
-60.36
-66.98
-74.30
-81.06
-85.43
-85.45
-79.64
-67.58
-50.20
-29.55
-8.25
11.36
27.73
40.32
49.26
55.02
58.00
58.48
56.69
53.01
47.95
42.04
35.77
29.44
23.28
17.52
12.53
8.80
6.81
6.93
9.19
13.29
18.55
24.14
29.17
32.86
34.78
34.87
33.40
30.90
27.97
25.04
22.29
19.63
16.78
13.41
9.29
4.41
-0.96
-6.36
-11.31
-15.43
-18.62
-21.13
-23.43
-26.04
-29.27
-33.12
-37.32
-41.45
-45.19
-48.43
-51.37
-54.42
-58.17
-63.15
-69.55
-76.98
-84.24
-89.42
-90.44
-85.66
-74.48
-57.68
-37.18
-15.36
5.53
23.88
38.82
50.08
57.76
62.16
63.71
62.97
60.54
56.91
52.44
47.26
41.50
35.30
29.03
23.28
18.76
16.15
15.90
18.09
22.33
27.88
33.73
38.93
42.74
44.83
45.25
44.34
42.57
40.34
37.88
35.26
32.42
29.32
26.01
22.68
19.57
16.90
14.68
12.67
10.56
8.08
5.18
2.09
-0.81
-3.19
-4.86
-5.95
-6.72
-7.49
-8.52
-9.94
-11.78
-13.99
-16.40
-18.83
-21.12
-23.26
-25.42
-27.93
-31.17
-35.33
-40.34
-45.80
-51.19
-56.11
-60.40
-64.30
-68.31
-73.04
-79.04
-86.62
-95.55
-104.89
-112.87
-117.12
-115.31
-105.88
-88.77
-65.49
-38.83
-11.98
12.31
32.34
47.51
58.05
64.56
67.71
68.19
66.62
63.66
59.87
55.71
51.40
47.01
42.51
38.03
33.89
30.69
29.14
29.80
32.84
37.84
43.89
49.84
54.62
57.57
58.57
57.95
56.23
53.86
51.10
48.01
44.56
40.82
36.91
33.04
29.34
25.80
22.29
18.73
15.16
11.76
8.77
6.36
4.49
3.04
1.81
0.75
-0.09
-0.59
-0.76
-0.81
-1.12
-2.17
-4.23
-7.28
-10.96
-14.74
-18.11
-20.83
-23.01
-25.05
-27.45
-30.57
-34.53
-39.12
-43.97
-48.72
-53.13
-57.22
-61.17
-65.37
-70.24
-76.25
-83.63
-92.10
-100.59
-107.13
-109.26
-104.71
-92.27
-72.43
-47.31
-20.07
6.12
28.82
46.84
60.00
68.73
73.60
75.16
73.86
70.18
64.69
58.01
50.74
43.42
36.53
30.49
25.72
22.58
21.34
22.15
24.95
29.43
35.05
41.10
46.78
51.31
54.18
55.16
54.40
52.31
49.49
46.49
43.70
41.23
38.95
36.53
33.65
30.16
26.19
22.15
18.57
15.89
14.28
13.55
13.25
12.89
12.12
10.89
9.44
8.14
7.36
7.28
7.79
8.53
9.14
9.37
9.15
8.63
7.96
7.26
6.47
5.49
4.25
2.83
1.40
0.10
-1.01
-2.01
-3.05
-4.22
-5.52
-6.91
-8.40
-10.09
-12.14
-14.66
-17.64
-20.88
-24.14
-27.24
-30.10
-32.77
-35.43
-38.25
-41.35
-44.74
-48.34
-51.94
-55.35
-58.45
-61.23
-63.95
-67.01
-70.94
-76.23
-83.08
-91.13
-99.30
-105.81
-108.47
-105.25
-94.97
-77.80
-55.33
-30.16
-5.16
17.24
35.51
49.07
58.08
63.11
64.86
64.02
61.29
57.28
52.51
47.31
41.80
36.02
29.98
23.94
18.38
14.06
11.79
12.15
15.25
20.57
27.17
33.85
39.65
43.91
46.50
47.56
47.36
46.17
44.15
41.43
38.13
34.41
30.43
26.35
22.32
18.51
15.05
12.04
9.48
7.20
4.99
2.66
0.19
-2.27
-4.43
-6.07
-7.14
-7.89
-8.73
-10.06
-12.08
-14.68
-17.53
-20.24
-22.60
-24.68
-26.77
-29.27
-32.43
-36.25
-40.43
-44.54
-48.17
-51.14
-53.64
-56.17
-59.43
-64.12
-70.64
-78.91
-88.08
-96.51
-102.06
-102.50
-96.20
-82.76
-63.10
-39.33
-14.16
9.75
30.37
46.52
57.87
64.80
67.99
68.31
66.49
63.08
58.43
52.73
46.22
39.31
32.52
26.43
21.59
18.35
16.98
17.62
20.26
24.70
30.44
36.72
42.61
47.28
50.16
51.13
50.41
48.46
45.71
42.53
39.07
35.44
31.72
28.02
24.44
21.06
17.92
15.03
12.49
10.41
8.84
7.72
6.79
5.74
4.30
2.46
0.44
-1.41
-2.83
-3.81
-4.59
-5.56
-7.02
-9.02
-11.43
-13.95
-16.35
-18.55
-20.59
-22.61
-24.74
-27.14
-29.97
-33.43
-37.64
-42.50
-47.73
-52.78
-57.21
-60.82
-63.93
-67.22
-71.61
-77.85
-86.15
-95.84
-105.28
-112.03
-113.43
-107.33
-92.98
-71.35
-45.00
-17.28
8.62
30.46
47.22
58.88
66.03
69.36
69.61
67.45
63.56
58.59
53.01
47.09
40.90
34.54
28.34
22.93
19.13
17.72
19.07
23.04
28.94
35.72
42.30
47.80
51.73
53.94
54.59
53.92
52.23
49.80
46.84
43.50
39.89
36.00
31.82
27.39
22.86
18.50
14.62
11.47
9.05
7.16
5.51
3.84
2.12
0.55
-0.56
-1.04
-1.01
-0.91
-1.31
-2.66
-5.11
-8.43
-12.12
-15.68
-18.79
-21.44
-23.88
-26.49
-29.56
-33.20
-37.29
-41.62
-45.94
-50.11
-54.10
-58.04
-62.20
-67.04
-73.09
-80.72
-89.75
-99.02
-106.44
-109.26
-105.02
-92.41
-72.00
-46.12
-18.23
8.18
30.51
47.56
59.30
66.45
69.83
70.13
67.86
63.47
57.52
50.63
43.43
36.38
29.80
24.00
19.37
16.49
15.94
18.13
22.97
29.81
37.54
44.87
50.69
54.36
55.72
55.00
52.59
48.89
44.26
39.03
33.51
28.07
23.00
18.45
14.40
10.66
6.94
3.01
-1.12
-5.27
-9.09
-12.30
-14.77
-16.66
-18.39
-20.42
-23.08
-26.38
-30.08
-33.78
-37.17
-40.10
-42.63
-44.98
-47.46
-50.52
-54.72
-60.63
-68.52
-77.93
-87.34
-94.33
-96.12
-90.55
-76.90
-56.32
-31.46
-5.65
18.10
37.78
52.58
62.59
68.43
70.81
70.41
67.74
63.27
57.37
50.42
42.88
35.32
28.46
23.00
19.51
18.31
19.38
22.48
27.17
32.89
38.91
44.38
48.41
50.22
49.44
46.26
41.42
35.94
30.76
26.42
22.90
19.72
16.19
11.80
6.44
0.46
-5.48
-10.62
-14.49
-17.00
-18.50
-19.64
-21.12
-23.41
-26.63
-30.48
-34.41
-37.90
-40.64
-42.76
-44.75
-47.36
-51.41
-57.49
-65.60
-74.93
-83.70
-89.47
-89.73
-82.76
-68.31
-47.82
-23.99
0.00
21.48
38.86
51.69
60.29
65.29
67.24
66.49
63.32
58.10
51.39
43.90
36.41
29.68
24.33
20.84
19.55
20.59
23.94
29.26
35.90
42.94
49.26
53.92
56.36
56.55
54.95
52.23
49.02
45.67
42.29
38.84
35.28
31.61
27.93
24.26
20.61
17.03
13.64
10.61
8.09
6.13
4.58
3.20
1.80
0.26
-1.42
-3.22
-5.23
-7.55
-10.27
-13.28
-16.34
-19.16
-21.64
-23.98
-26.59
-29.87
-34.00
-38.73
-43.55
-47.89
-51.43
-54.21
-56.69
-59.52
-63.44
-69.09
-76.76
-86.11
-95.84
-103.68
-106.77
-102.58
-89.85
-69.31
-43.50
-16.09
9.41
30.58
46.46
57.27
63.78
66.75
66.70
64.03
59.21
52.81
45.53
37.98
30.68
24.08
18.65
14.89
13.28
14.14
17.42
22.74
29.37
36.42
42.91
47.99
51.03
51.78
50.40
47.42
43.56
39.45
35.51
31.80
28.19
24.50
20.70
16.92
13.44
10.52
8.29
6.71
5.57
4.63
3.68
2.68
1.73
0.99
0.60
0.55
0.70
0.81
0.64
0.11
-0.72
-1.69
-2.68
-3.70
-4.91
-6.54
-8.72
-11.43
-14.43
-17.38
-19.96
-22.03
-23.64
-25.06
-26.73
-29.03
-32.23
-36.29
-40.89
-45.55
-49.76
-53.22
-55.93
-58.23
-60.61
-63.69
-68.06
-74.14
-81.96
-90.78
-98.90
-103.82
-102.85
-94.13
-77.47
-54.54
-28.46
-2.71
19.92
37.87
50.84
59.31
64.00
65.51
64.33
60.88
55.63
49.08
41.74
34.10
26.70
20.18
15.13
12.12
11.55
13.57
17.98
24.30
31.70
39.16
45.62
50.22
52.48
52.41
50.43
47.17
43.27
39.20
35.17
31.20
27.20
23.09
18.88
14.77
11.02
7.94
5.72
4.32
3.53
3.04
2.63
2.24
1.98
2.03
2.44
3.12
3.78
4.07
3.73
2.71
1.19
-0.52
-2.11
-3.46
-4.66
-6.01
-7.87
-10.52
-13.97
-17.97
-22.07
-25.84
-29.00
-31.57
-33.87
-36.35
-39.47
-43.43
-48.17
-53.35
-58.47
-63.11
-67.02
-70.30
-73.37
-76.92
-81.76
-88.55
-97.39
-107.35
-116.40
-121.65
-120.22
-110.25
-91.68
-66.38
-37.61
-8.93
16.73
37.63
53.19
63.62
69.54
71.69
70.88
67.98
63.79
58.88
53.57
47.96
42.10
36.24
30.90
26.84
24.85
25.49
28.91
34.71
42.00
49.56
56.14
60.77
62.97
62.87
60.95
57.84
54.12
50.15
46.11
42.02
37.92
33.76
29.52
25.16
20.76
16.55
12.86
10.08
8.42
7.79
7.83
7.99
7.74
6.77
5.07
2.90
0.67
-1.23
-2.58
-3.49
-4.27
-5.39
-7.25
-9.99
-13.44
-17.18
-20.73
-23.79
-26.39
-28.84
-31.68
-35.37
-40.06
-45.58
-51.38
-56.81
-61.38
-64.92
-67.69
-70.41
-74.07
-79.59
-87.50
-97.47
-108.02
-116.62
-120.19
-116.06
-102.93
-81.44
-54.10
-24.50
3.75
27.95
46.77
60.04
68.38
72.59
73.44
71.62
67.76
62.54
56.57
50.30
44.06
38.07
32.59
28.05
24.99
23.98
25.40
29.32
35.31
42.58
50.03
56.50
61.01
63.03
62.55
60.08
56.44
52.46
48.68
45.23
41.91
38.38
34.43
30.09
25.62
21.34
17.50
14.27
11.66
9.70
8.38
7.70
7.56
7.79
8.19
8.61
8.95
9.21
9.36
9.32
8.98
8.29
7.29
6.16
5.09
4.14
3.17
1.92
0.11
-2.32
-5.18
-8.07
-10.61
-12.62
-14.25
-15.91
-18.01
-20.75
-24.00
-27.32
-30.24
-32.43
-33.96
-35.26
-36.97
-39.64
-43.50
-48.32
-53.52
-58.45
-62.57
-65.74
-68.23
-70.72
-74.10
-79.24
-86.65
-96.09
-106.23
-114.65
-118.30
-114.42
-101.56
-80.28
-53.04
-23.47
4.85
29.28
48.49
62.25
70.94
75.10
75.35
72.48
67.44
61.29
54.87
48.61
42.56
36.67
31.05
26.14
22.61
21.19
22.36
26.15
32.14
39.49
47.08
53.73
58.43
60.61
60.19
57.63
53.72
49.29
44.93
40.90
37.14
33.46
29.69
25.80
21.90
18.19
14.85
12.09
9.98
8.54
7.69
7.29
7.15
7.09
7.05
7.01
7.05
7.19
7.38
7.37
6.85
5.62
3.74
1.53
-0.53
-2.08
-3.07
-3.83
-4.87
-6.68
-9.46
-12.99
-16.81
-20.43
-23.54
-26.14
-28.53
-31.14
-34.37
-38.40
-43.11
-48.18
-53.16
-57.66
-61.51
-64.82
-67.95
-71.44
-75.94
-82.01
-89.80
-98.63
-106.81
-111.73
-110.51
-101.08
-83.01
-57.93
-29.14
-0.55
24.47
43.98
57.53
65.79
69.81
70.56
68.71
64.76
59.22
52.63
45.62
38.73
32.40
26.97
22.74
20.08
19.35
20.78
24.38
29.77
36.29
42.99
48.94
53.32
55.63
55.70
53.75
50.27
45.86
41.16
36.65
32.59
28.93
25.42
21.79
17.87
13.81
9.99
6.84
4.56
3.09
2.12
1.26
0.31
-0.73
-1.65
-2.27
-2.58
-2.78
-3.22
-4.23
-6.02
-8.55
-11.62
-14.88
-18.03
-20.85
-23.33
-25.70
-28.28
-31.41
-35.23
-39.66
-44.36
-48.97
-53.17
-56.85
-60.24
-63.82
-68.28
-74.29
-82.21
-91.66
-101.17
-108.28
-110.04
-104.05
-89.43
-67.30
-40.58
-13.00
12.11
32.64
47.96
58.46
64.91
67.94
67.94
65.28
60.50
54.35
47.63
40.94
34.63
28.84
23.77
19.75
17.33
17.06
19.27
23.76
29.83
36.42
42.45
47.01
49.59
49.99
48.36
45.00
40.39
35.10
29.72
24.73
20.35
16.47
12.72
8.70
4.20
-0.72
-5.67
-10.13
-13.71
-16.23
-17.90
-19.14
-20.51
-22.46
-25.21
-28.70
-32.64
-36.65
-40.38
-43.62
-46.48
-49.32
-52.82
-57.77
-64.78
-73.84
-83.91
-92.90
-98.02
-96.66
-87.31
-70.26
-47.59
-22.42
1.97
23.20
40.04
52.33
60.48
65.03
66.43
65.04
61.32
55.80
49.15
42.06
35.13
28.97
24.07
20.85
19.59
20.39
23.12
27.48
32.98
38.99
44.68
49.19
51.70
51.74
49.27
44.72
38.87
32.62
26.74
21.68
17.52
14.03
10.84
7.53
3.86
-0.19
-4.41
-8.46
-11.97
-14.67
-16.52
-17.72
-18.66
-19.82
-21.65
-24.40
-28.08
-32.42
-37.01
-41.41
-45.31
-48.67
-51.79
-55.25
-59.83
-66.22
-74.71
-84.74
-94.70
-102.03
-103.88
-98.07
-83.90
-62.64
-37.07
-10.64
13.62
33.78
49.12
59.74
66.09
68.67
67.95
64.51
59.07
52.46
45.47
38.73
32.76
28.01
24.93
23.89
25.13
28.62
33.96
40.43
47.10
52.95
57.05
58.85
58.20
55.43
51.23
46.32
41.36
36.71
32.43
28.32
24.11
19.58
14.78
10.02
5.79
2.56
0.53
-0.56
-1.29
-2.27
-3.89
-6.12
-8.56
-10.83
-12.68
-14.29
-16.00
-18.24
-21.22
-24.91
-29.08
-33.43
-37.71
-41.73
-45.45
-48.94
-52.53
-56.74
-62.27
-69.63
-78.74
-88.55
-96.92
-101.09
-98.53
-87.90
-69.63
-45.86
-19.75
5.51
27.48
44.87
57.37
65.25
69.03
69.29
66.70
62.01
56.13
49.89
44.01
39.00
35.19
32.77
31.79
32.23
33.99
36.95
40.92
45.59
50.47
54.82
57.86
58.89
57.59
54.14
49.15
43.49
38.01
33.29
29.56
26.69
24.36
22.18
19.92
17.50
15.09
12.96
11.39
10.44
9.99
9.66
9.11
8.11
6.66
4.99
3.38
2.02
0.87
-0.33
-1.93
-4.25
-7.39
-11.15
-15.10
-18.68
-21.47
-23.30
-24.44
-25.49
-27.18
-30.06
-34.26
-39.38
-44.66
-49.33
-52.97
-55.69
-58.09
-61.03
-65.31
-71.41
-79.20
-87.85
-95.76
-100.73
-100.47
-93.26
-78.58
-57.53
-32.59
-6.99
16.21
34.87
48.15
56.30
60.18
60.81
58.96
55.15
49.80
43.34
36.45
29.96
24.73
21.44
20.37
21.35
23.92
27.51
31.59
35.79
39.82
43.29
45.73
46.59
45.46
42.30
37.53
31.92
26.30
21.32
17.12
13.48
10.01
6.41
2.62
-1.16
-4.66
-7.71
-10.37
-12.87
-15.46
-18.28
-21.27
-24.27
-27.10
-29.66
-31.99
-34.31
-37.01
-40.56
-45.33
-51.35
-57.97
-63.81
-66.96
-65.59
-58.56
-45.94
-29.05
-10.05
8.73
25.34
38.67
48.26
54.18
56.64
55.89
52.22
46.07
38.15
29.45
21.09
14.19
9.56
7.61
8.25
11.07
15.48
20.85
26.59
32.14
36.90
40.33
42.02
41.85
40.05
37.11
33.64
30.15
26.94
24.05
21.35
18.70
16.00
13.28
10.63
8.25
6.34
5.08
4.61
4.92
5.86
7.12
8.29
9.04
9.15
8.66
7.75
6.68
5.67
4.81
4.04
3.24
2.27
1.08
-0.24
-1.52
-2.55
-3.21
-3.48
-3.51
-3.55
-3.81
-4.45
-5.42
-6.56
-7.60
-8.33
-8.61
-8.45
-7.98
-7.46
-7.15
-7.22
-7.77
-8.74
-10.05
-11.52
-13.05
-14.52
-15.91
-17.22
-18.52
-19.88
-21.34
-22.96
-24.68
-26.51
-28.50
-30.74
-33.38
-36.48
-39.98
-43.64
-47.14
-50.23
-52.81
-55.06
-57.43
-60.49
-64.80
-70.74
-78.33
-87.03
-95.59
-102.08
-104.27
-100.18
-88.83
-70.67
-47.59
-22.43
1.83
22.84
39.26
50.73
57.57
60.38
59.82
56.58
51.45
45.21
38.59
32.02
25.77
19.96
14.87
10.91
8.71
8.77
11.29
15.97
22.07
28.59
34.51
39.05
41.76
42.56
41.64
39.38
36.22
32.53
28.53
24.28
19.77
14.95
9.86
4.61
-0.61
-5.57
-10.13
-14.20
-17.79
-20.96
-23.71
-26.00
-27.68
-28.67
-29.03
-29.06
-29.29
-30.40
-33.02
-37.45
-43.56
-50.59
-57.21
-61.78
-62.62
-58.60
-49.45
-36.00
-19.89
-3.12
12.54
25.84
36.24
43.66
48.24
50.10
49.33
46.07
40.58
33.35
25.04
16.46
8.42
1.68
-3.10
-5.53
-5.49
-3.13
1.10
6.56
12.47
17.96
22.19
24.51
24.61
22.65
19.18
14.96
10.62
6.45
2.32
-2.14
-7.28
-13.13
-19.39
-25.49
-30.92
-35.44
-39.15
-42.49
-46.02
-50.28
-55.57
-61.72
-68.00
-73.05
-75.15
-72.71
-64.81
-51.63
-34.51
-15.59
2.93
19.26
32.44
42.22
48.75
52.25
52.88
50.73
45.96
39.00
30.51
21.30
12.21
3.91
-3.16
-8.78
-12.89
-15.41
-16.28
-15.52
-13.29
-10.05
-6.54
-3.60
-1.99
-2.23
-4.57
-9.03
-15.45
-23.46
-32.31
-40.72
-47.01
-49.37
-46.45
-37.85
-24.30
-7.50
10.42
27.48
42.30
54.17
62.94
68.64
71.37
71.23
68.38
63.19
56.29
48.52
40.73
33.71
27.99
23.90
21.56
20.96
21.99
24.40
27.84
31.78
35.63
38.77
40.72
41.26
40.45
38.58
36.08
33.30
30.44
27.55
24.53
21.34
17.99
14.58
11.26
8.11
5.14
2.34
-0.28
-2.64
-4.67
-6.32
-7.75
-9.11
-10.63
-12.40
-14.40
-16.57
-18.78
-21.02
-23.27
-25.62
-28.15
-31.03
-34.46
-38.55
-43.26
-48.27
-53.17
-57.54
-61.28
-64.64
-68.20
-72.72
-78.93
-87.21
-97.32
-108.08
-117.36
-122.27
-120.05
-108.94
-89.02
-62.35
-32.34
-2.71
23.57
44.84
60.65
71.35
77.55
79.83
78.83
75.27
70.01
63.91
57.67
51.67
46.10
41.05
36.71
33.45
31.75
32.00
34.31
38.35
43.40
48.54
52.93
55.98
57.45
57.35
55.89
53.30
49.83
45.78
41.44
37.08
32.87
28.86
25.00
21.20
17.39
13.59
9.86
6.32
3.09
0.23
-2.29
-4.59
-6.86
-9.22
-11.72
-14.26
-16.63
-18.68
-20.35
-21.86
-23.61
-26.10
-29.68
-34.39
-39.88
-45.45
-50.36
-54.13
-56.80
-58.91
-61.41
-65.32
-71.40
-79.83
-89.91
-100.03
-107.69
-110.09
-104.90
-91.10
-69.53
-42.74
-14.26
12.42
34.82
51.81
63.47
70.52
73.85
74.17
72.13
68.31
63.28
57.55
51.47
45.26
39.07
33.16
27.99
24.21
22.45
23.13
26.25
31.31
37.40
43.46
48.48
51.78
53.06
52.43
50.26
47.01
43.15
39.05
34.91
30.83
26.81
22.77
18.58
14.16
9.45
4.48
-0.59
-5.51
-10.02
-13.90
-17.04
-19.54
-21.69
-23.88
-26.47
-29.65
-33.39
-37.42
-41.41
-45.07
-48.29
-51.17
-54.05
-57.40
-61.78
-67.66
-75.13
-83.62
-91.63
-96.90
-96.92
-89.74
-74.80
-53.31
-27.94
-2.03
21.40
40.39
54.27
63.34
68.40
70.29
69.68
67.15
63.21
58.36
52.99
47.34
41.52
35.61
29.90
24.91
21.30
19.70
20.49
23.56
28.36
33.93
39.14
43.00
44.87
44.65
42.75
39.85
36.61
33.41
30.21
26.65
22.36
17.16
11.23
5.00
-1.05
-6.53
-11.33
-15.54
-19.40
-23.16
-26.98
-30.91
-34.80
-38.48
-41.76
-44.55
-46.93
-49.16
-51.69
-55.03
-59.72
-66.04
-73.71
-81.69
-88.10
-90.65
-87.27
-76.90
-59.98
-38.45
-15.17
6.95
25.75
40.25
50.51
57.20
61.04
62.50
61.79
59.00
54.40
48.43
41.60
34.40
27.14
20.07
13.49
7.86
3.74
1.63
1.77
3.96
7.69
12.17
16.58
20.12
22.16
22.29
20.43
16.88
12.29
7.44
3.03
-0.64
-3.75
-6.83
-10.60
-15.64
-22.13
-29.74
-37.58
-44.48
-49.25
-51.18
-50.27
-47.39
-44.02
-41.78
-41.91
-44.71
-49.41
-54.25
-56.99
-55.55
-48.65
-36.17
-19.17
0.39
20.22
38.25
52.98
63.65
70.18
72.86
72.20
68.78
63.18
56.03
47.93
39.41
30.87
22.61
14.81
7.75
1.79
-2.60
-4.90
-4.87
-2.67
1.10
5.43
9.28
11.82
12.66
11.87
9.87
7.19
4.25
1.27
-1.87
-5.46
-9.85
-15.17
-21.26
-27.58
-33.46
-38.42
-42.36
-45.76
-49.43
-54.31
-60.99
-69.46
-78.90
-87.64
-93.44
-94.01
-87.64
-73.84
-53.65
-29.46
-4.34
18.85
38.16
52.83
63.05
69.49
72.82
73.46
71.68
67.71
61.89
54.70
46.73
38.57
30.78
23.89
18.44
14.88
13.57
14.61
17.78
22.56
28.15
33.65
38.25
41.37
42.78
42.54
40.88
38.08
34.38
30.02
25.27
20.43
15.87
11.81
8.23
4.87
1.30
-2.83
-7.62
-12.84
-18.01
-22.62
-26.38
-29.32
-31.78
-34.29
-37.24
-40.80
-44.80
-48.85
-52.53
-55.56
-57.98
-60.11
-62.51
-65.92
-71.10
-78.60
-88.39
-99.44
-109.50
-115.48
-114.32
-104.14
-85.00
-59.04
-29.77
-0.88
24.73
45.47
60.90
71.28
77.08
78.89
77.42
73.61
68.47
62.88
57.32
51.89
46.50
41.16
36.17
32.17
29.90
29.93
32.37
36.85
42.50
48.27
53.12
56.26
57.40
56.60
54.29
51.02
47.36
43.70
40.22
36.94
33.71
30.36
26.74
22.77
18.48
13.97
9.51
5.40
2.00
-0.53
-2.31
-3.70
-5.26
-7.42
-10.28
-13.57
-16.74
-19.40
-21.53
-23.55
-26.17
-29.97
-35.04
-40.95
-46.89
-52.12
-56.31
-59.64
-62.74
-66.43
-71.49
-78.50
-87.65
-98.47
-109.58
-118.60
-122.56
-118.72
-105.59
-83.65
-55.40
-24.62
4.83
30.04
49.62
63.48
72.28
76.86
77.92
76.05
71.84
65.97
59.22
52.26
45.61
39.59
34.42
30.37
27.82
27.18
28.78
32.63
38.27
44.83
51.18
56.28
59.41
60.43
59.60
57.42
54.38
50.83
46.94
42.82
38.56
34.25
30.00
25.84
21.81
17.94
14.30
10.97
8.04
5.55
3.49
1.82
0.48
-0.65
-1.74
-3.08
-4.91
-7.42
-10.52
-13.90
-17.16
-19.92
-22.12
-24.03
-26.17
-29.09
-33.08
-38.07
-43.56
-48.95
-53.69
-57.64
-61.00
-64.36
-68.41
-73.84
-81.14
-90.31
-100.55
-109.99
-115.91
-115.39
-106.30
-88.24
-62.89
-33.61
-4.29
21.75
42.61
57.82
67.89
73.62
75.73
74.80
71.39
66.19
59.85
52.97
45.87
38.83
32.17
26.45
22.46
20.95
22.36
26.48
32.56
39.41
45.80
50.76
53.79
54.86
54.28
52.53
50.08
47.27
44.25
41.00
37.40
33.33
28.75
23.82
18.87
14.32
10.58
7.84
6.01
4.71
3.45
1.91
0.02
-1.93
-3.51
-4.43
-4.76
-4.92
-5.52
-7.02
-9.55
-12.85
-16.41
-19.76
-22.67
-25.24
-27.84
-30.86
-34.59
-39.04
-43.95
-48.91
-53.52
-57.54
-61.07
-64.49
-68.46
-73.72
-80.88
-90.07
-100.58
-110.65
-117.57
-118.31
-110.51
-93.43
-68.43
-38.75
-8.46
18.75
40.52
56.17
66.32
72.16
74.78
74.91
72.88
68.92
63.30
56.41
48.72
40.79
33.24
26.77
22.12
19.91
20.48
23.73
29.10
35.70
42.55
48.71
53.49
56.41
57.25
56.04
53.05
48.83
44.05
39.36
35.13
31.39
27.90
24.31
20.47
16.50
12.76
9.62
7.28
5.66
4.48
3.45
2.36
1.22
0.15
-0.74
-1.41
-2.03
-2.84
-4.12
-6.06
-8.69
-11.80
-15.04
-18.02
-20.42
-22.19
-23.56
-25.04
-27.21
-30.47
-34.84
-39.98
-45.28
-50.13
-54.18
-57.48
-60.47
-63.90
-68.61
-75.28
-84.03
-94.01
-103.24
-108.86
-107.90
-98.34
-80.07
-55.08
-26.91
0.56
24.28
42.75
55.90
64.51
69.49
71.40
70.57
67.23
61.81
54.92
47.22
39.27
31.47
24.19
17.91
13.25
10.88
11.27
14.46
19.98
26.93
34.14
40.52
45.27
48.01
48.79
47.97
45.94
43.03
39.43
35.26
30.62
25.74
20.87
16.19
11.77
7.50
3.25
-1.03
-5.22
-9.06
-12.35
-15.02
-17.17
-19.06
-20.94
-23.05
-25.49
-28.29
-31.27
-34.20
-36.76
-38.77
-40.32
-41.83
-43.97
-47.51
-52.97
-60.39
-69.13
-77.77
-84.27
-86.35
-82.23
-71.14
-53.81
-32.30
-9.39
12.24
30.71
45.15
55.54
62.25
65.67
66.09
63.76
59.03
52.35
44.32
35.52
26.61
18.30
11.39
6.58
4.40
5.03
8.23
13.44
19.90
26.77
33.24
38.58
42.24
43.95
43.78
42.11
39.52
36.54
33.54
30.63
27.74
24.74
21.51
18.05
14.46
10.94
7.76
5.09
3.04
1.53
0.32
-0.85
-2.20
-3.75
-5.34
-6.64
-7.43
-7.66
-7.60
-7.72
-8.56
-10.47
-13.44
-17.13
-20.95
-24.33
-27.01
-29.08
-31.03
-33.44
-36.73
-40.97
-45.86
-50.86
-55.43
-59.30
-62.55
-65.59
-69.05
-73.69
-80.12
-88.56
-98.44
-108.15
-115.13
-116.46
-109.83
-94.48
-71.60
-44.09
-15.56
10.74
32.76
49.77
62.02
70.10
74.53
75.61
73.61
68.97
62.39
54.72
46.77
39.20
32.46
26.94
23.00
21.08
21.54
24.56
29.88
36.82
44.31
51.14
56.27
59.08
59.48
57.86
54.87
51.22
47.36
43.54
39.69
35.67
31.35
26.77
22.11
17.66
13.74
10.59
8.24
6.56
5.26
3.98
2.54
0.90
-0.79
-2.30
-3.59
-4.77
-6.16
-8.06
-10.64
-13.78
-17.17
-20.41
-23.30
-25.84
-28.30
-31.06
-34.47
-38.71
-43.69
-49.11
-54.51
-59.43
-63.63
-67.19
-70.62
-74.77
-80.58
-88.69
-98.97
-110.14
-119.78
-124.87
-122.56
-111.20
-91.02
-64.12
-33.85
-3.85
22.97
44.92
61.43
72.67
79.12
81.31
79.88
75.65
69.56
62.59
55.51
48.76
42.64
37.34
33.16
30.52
29.80
31.17
34.55
39.52
45.42
51.44
56.74
60.63
62.71
62.93
61.56
59.10
56.00
52.55
48.87
44.93
40.72
36.27
31.68
27.11
22.73
18.78
15.49
13.09
11.63
10.96
10.68
10.42
9.93
9.27
8.70
8.44
8.53
8.72
8.69
8.22
7.33
6.29
5.38
4.76
4.31
3.77
2.83
1.31
-0.80
-3.36
-6.16
-8.96
-11.53
-13.73
-15.59
-17.32
-19.28
-21.74
-24.80
-28.16
-31.34
-33.89
-35.73
-37.22
-39.10
-42.02
-46.27
-51.61
-57.26
-62.39
-66.35
-69.06
-70.95
-72.87
-75.88
-80.96
-88.74
-99.10
-110.82
-121.44
-127.66
-126.24
-115.10
-94.23
-65.87
-33.87
-2.41
25.13
46.90
62.51
72.52
77.80
79.20
77.48
73.43
67.95
61.82
55.61
49.54
43.59
37.82
32.55
28.43
26.25
26.66
29.85
35.41
42.43
49.72
56.07
60.59
62.78
62.62
60.49
56.92
52.58
48.01
43.58
39.43
35.47
31.49
27.25
22.63
17.70
12.72
8.06
4.07
0.95
-1.37
-3.17
-4.82
-6.62
-8.69
-10.91
-13.05
-14.92
-16.43
-17.72
-19.02
-20.63
-22.75
-25.51
-28.85
-32.65
-36.64
-40.54
-44.09
-47.16
-49.91
-52.77
-56.43
-61.62
-68.80
-77.82
-87.54
-95.85
-100.06
-97.67
-87.28
-69.25
-45.68
-19.75
5.25
26.88
43.93
56.26
64.35
68.79
70.05
68.58
64.80
59.25
52.43
44.81
36.78
28.84
21.57
15.68
11.88
10.64
12.12
16.10
21.95
28.78
35.58
41.35
45.37
47.31
47.28
45.72
43.24
40.30
37.18
33.92
30.43
26.67
22.72
18.78
15.07
11.79
8.99
6.65
4.61
2.76
1.02
-0.56
-1.91
-2.91
-3.55
-3.93
-4.27
-4.79
-5.75
-7.25
-9.29
-11.69
-14.19
-16.53
-18.54
-20.28
-22.01
-24.08
-26.82
-30.41
-34.77
-39.57
-44.39
-48.81
-52.64
-55.92
-59.01
-62.41
-66.78
-72.64
-80.16
-88.83
-97.15
-102.83
-103.25
-96.35
-81.49
-59.86
-34.22
-8.03
15.62
34.80
48.94
58.49
64.22
66.81
66.69
64.14
59.54
53.36
46.16
38.41
30.52
22.95
16.32
11.41
8.98
9.50
12.96
18.74
25.86
33.13
39.51
44.25
46.90
47.38
45.95
43.14
39.59
35.91
32.40
29.08
25.66
21.83
17.43
12.63
7.84
3.47
-0.22
-3.35
-6.19
-9.10
-12.24
-15.49
-18.55
-21.12
-23.13
-24.77
-26.51
-28.85
-32.09
-36.24
-41.05
-46.10
-51.00
-55.53
-59.69
-63.76
-68.23
-73.82
-81.19
-90.61
-101.43
-111.87
-119.08
-119.95
-112.17
-95.16
-70.53
-41.47
-11.86
15.00
37.05
53.65
65.12
72.27
75.94
76.83
75.53
72.51
68.14
62.73
56.58
50.10
43.90
38.66
35.09
33.71
34.77
38.15
43.40
49.75
56.19
61.63
65.17
66.33
65.19
62.34
58.58
54.62
50.85
47.36
43.98
40.48
36.76
32.83
28.80
24.92
21.46
18.73
16.92
16.06
15.91
16.10
16.25
16.08
15.63
15.04
14.47
13.96
13.41
12.64
11.59
10.33
9.07
7.99
7.19
6.59
6.09
5.56
5.00
4.43
3.80
2.98
1.81
0.20
-1.76
-3.75
-5.42
-6.51
-6.99
-7.09
-7.20
-7.68
-8.71
-10.27
-12.16
-14.12
-15.91
-17.45
-18.82
-20.27
-22.11
-24.55
-27.56
-30.90
-34.21
-37.19
-39.82
-42.31
-45.05
-48.38
-52.43
-57.06
-61.98
-66.83
-71.34
-75.41
-79.14
-82.87
-87.25
-93.10
-101.16
-111.54
-123.21
-133.77
-139.87
-138.18
-126.57
-105.08
-76.04
-43.31
-11.11
17.24
39.89
56.50
67.62
74.15
76.90
76.60
73.88
69.44
63.98
58.11
52.32
46.91
42.12
38.16
35.35
34.07
34.76
37.66
42.69
49.32
56.59
63.36
68.53
71.40
71.77
69.91
66.44
62.06
57.38
52.76
48.35
44.11
39.95
35.85
31.91
28.32
25.23
22.68
20.60
18.87
17.35
16.02
14.86
13.91
13.16
12.59
12.17
11.93
11.87
11.97
12.10
12.06
11.67
10.83
9.62
8.21
6.79
5.50
4.36
3.37
2.48
1.63
0.82
-0.03
-1.00
-2.19
-3.64
-5.33
-7.21
-9.23
-11.35
-13.51
-15.66
-17.77
-19.77
-21.70
-23.62
-25.66
-27.86
-30.16
-32.48
-34.77
-37.16
-39.92
-43.32
-47.46
-52.16
-56.94
-61.31
-64.90
-67.73
-70.15
-72.74
-76.21
-81.20
-88.16
-97.13
-107.44
-117.40
-124.41
-125.48
-118.21
-101.75
-77.32
-47.93
-17.44
10.65
34.01
51.72
63.95
71.36
74.71
74.76
72.25
67.97
62.71
56.99
51.04
44.94
38.78
32.97
28.22
25.33
24.99
27.42
32.29
38.81
45.95
52.61
57.93
61.35
62.70
62.16
60.15
57.14
53.56
49.68
45.63
41.48
37.31
33.19
29.22
25.48
22.03
18.94
16.28
14.14
12.54
11.42
10.64
10.04
9.56
9.23
9.17
9.39
9.81
10.23
10.42
10.21
9.58
8.60
7.43
6.24
5.12
4.13
3.19
2.21
1.02
-0.49
-2.39
-4.65
-7.13
-9.61
-11.84
-13.69
-15.21
-16.61
-18.22
-20.29
-22.90
-25.88
-28.85
-31.44
-33.46
-35.06
-36.71
-38.98
-42.31
-46.80
-52.10
-57.55
-62.42
-66.24
-69.02
-71.30
-74.07
-78.45
-85.26
-94.56
-105.29
-115.27
-121.48
-120.96
-111.80
-93.80
-68.76
-39.97
-11.10
14.75
35.73
51.30
61.85
68.05
70.61
70.17
67.39
63.07
57.93
52.51
47.00
41.36
35.57
29.90
25.02
21.79
21.01
23.11
27.97
34.92
42.87
50.52
56.65
60.36
61.36
59.96
56.94
53.28
49.71
46.58
43.76
40.88
37.63
33.85
29.63
25.23
20.94
17.05
13.72
11.04
8.96
7.37
6.14
5.15
4.36
3.70
3.09
2.38
1.46
0.28
-1.05
-2.31
-3.33
-4.10
-4.82
-5.80
-7.35
-9.55
-12.28
-15.27
-18.26
-21.06
-23.66
-26.21
-28.95
-32.17
-36.04
-40.55
-45.44
-50.24
-54.49
-57.97
-60.80
-63.51
-66.82
-71.50
-78.08
-86.64
-96.54
-106.31
-113.69
-116.02
-111.03
-97.63
-76.55
-50.17
-21.94
4.78
27.54
45.29
58.05
66.45
71.18
72.74
71.54
68.05
62.88
56.69
50.05
43.38
36.99
31.26
26.65
23.76
23.10
24.91
29.01
34.80
41.42
47.88
53.32
57.12
58.95
58.85
57.11
54.19
50.59
46.73
42.87
39.11
35.48
31.92
28.40
24.91
21.46
18.20
15.28
12.92
11.26
10.35
10.10
10.29
10.66
10.96
11.08
11.03
10.92
10.86
10.87
10.88
10.77
10.47
9.94
9.25
8.41
7.42
6.22
4.76
3.12
1.46
0.02
-1.06
-1.78
-2.38
-3.13
-4.25
-5.80
-7.69
-9.68
-11.53
-13.10
-14.35
-15.40
-16.46
-17.75
-19.44
-21.55
-23.97
-26.52
-29.01
-31.34
-33.58
-35.93
-38.65
-42.00
-45.99
-50.44
-54.96
-59.15
-62.76
-65.86
-68.93
-72.73
-78.10
-85.62
-95.16
-105.56
-114.54
-119.15
-116.60
-105.28
-85.51
-59.56
-30.88
-3.05
21.29
40.85
55.52
65.72
71.89
74.37
73.48
69.76
64.06
57.26
50.08
42.88
35.85
29.18
23.34
19.06
17.04
17.71
20.96
26.22
32.63
39.27
45.33
50.12
53.18
54.27
53.47
51.19
48.09
44.85
41.86
39.15
36.35
33.04
28.98
24.30
19.45
14.98
11.28
8.45
6.33
4.62
3.12
1.73
0.51
-0.47
-1.18
-1.68
-2.13
-2.72
-3.65
-5.08
-7.11
-9.70
-12.73
-15.96
-19.12
-22.04
-24.68
-27.19
-29.89
-33.10
-37.07
-41.77
-46.99
-52.29
-57.28
-61.71
-65.68
-69.61
-74.17
-80.10
-87.76
-96.83
-105.88
-112.56
-114.08
-108.12
-93.78
-72.06
-45.66
-18.09
7.36
28.49
44.44
55.32
61.72
64.27
63.52
60.06
54.64
48.18
41.57
35.49
30.23
25.88
22.41
20.01
19.08
20.17
23.69
29.64
37.40
45.86
53.66
59.59
62.90
63.46
61.68
58.33
54.17
49.75
45.23
40.57
35.62
30.28
24.69
19.11
13.88
9.24
5.31
2.12
-0.45
-2.54
-4.35
-6.12
-7.99
-10.03
-12.11
-14.02
-15.64
-17.02
-18.51
-20.58
-23.61
-27.77
-32.85
-38.37
-43.75
-48.57
-52.71
-56.47
-60.47
-65.52
-72.31
-81.05
-91.13
-100.92
-107.94
-109.51
-103.58
-89.51
-68.42
-42.87
-16.11
8.90
30.13
46.66
58.49
66.04
69.83
70.35
68.10
63.64
57.57
50.63
43.54
37.08
31.99
28.83
27.90
29.15
32.28
36.84
42.34
48.24
53.95
58.71
61.76
62.54
60.89
57.25
52.50
47.62
43.40
40.12
37.52
35.08
32.26
28.77
24.79
20.75
17.19
14.49
12.71
11.59
10.73
9.77
8.56
7.13
5.69
4.37
3.23
2.16
0.97
-0.53
-2.44
-4.76
-7.37
-10.12
-12.92
-15.70
-18.53
-21.53
-24.85
-28.64
-32.94
-37.71
-42.73
-47.62
-52.01
-55.71
-58.86
-62.03
-66.06
-71.69
-79.01
-87.13
-94.09
-97.35
-94.61
-84.68
-67.92
-46.17
-22.11
1.56
22.66
39.89
52.60
60.67
64.32
63.97
60.30
54.18
46.55
38.24
29.96
22.32
15.90
11.33
9.10
9.50
12.45
17.49
23.83
30.60
36.93
42.09
45.57
47.05
46.45
43.83
39.42
33.61
26.93
20.00
13.42
7.61
2.74
-1.37
-5.08
-8.75
-12.56
-16.38
-19.88
-22.69
-24.60
-25.69
-26.36
-27.18
-28.76
-31.67
-36.25
-42.47
-49.74
-56.79
-61.85
-63.04
-58.90
-49.01
-34.18
-16.26
2.39
19.61
34.00
45.00
52.68
57.36
59.21
58.18
54.14
47.20
38.01
27.71
17.79
9.68
4.32
2.00
2.44
5.00
9.00
13.85
19.09
24.19
28.49
31.23
31.78
29.85
25.71
20.07
13.84
7.81
2.42
-2.36
-6.87
-11.61
-16.90
-22.73
-28.77
-34.42
-39.12
-42.57
-44.91
-46.77
-49.04
-52.62
-58.11
-65.49
-73.89
-81.60
-86.36
-85.90
-78.67
-64.44
-44.54
-21.49
1.71
22.50
39.33
51.74
60.03
64.75
66.33
65.02
61.04
54.86
47.19
38.98
31.22
24.72
20.06
17.53
17.16
18.77
22.00
26.30
31.05
35.55
39.06
40.92
40.67
38.21
33.86
28.29
22.28
16.47
11.09
5.93
0.56
-5.37
-11.85
-18.50
-24.63
-29.60
-33.10
-35.30
-36.87
-38.71
-41.69
-46.37
-52.89
-60.76
-68.78
-75.17
-77.77
-74.72
-64.99
-48.96
-28.44
-6.17
14.98
32.82
46.27
55.29
60.43
62.30
61.31
57.73
51.92
44.55
36.55
28.99
22.76
18.39
16.03
15.53
16.65
19.15
22.75
26.99
31.20
34.50
36.04
35.27
32.17
27.28
21.43
15.50
10.02
5.04
0.26
-4.80
-10.50
-16.85
-23.57
-30.15
-36.02
-40.74
-44.11
-46.23
-47.65
-49.27
-52.20
-57.36
-64.89
-73.70
-81.53
-85.43
-82.80
-72.33
-54.60
-31.85
-7.27
16.02
35.76
50.80
61.02
66.80
68.67
67.11
62.60
55.75
47.42
38.78
31.01
25.08
21.44
20.01
20.29
21.64
23.65
26.20
29.36
33.02
36.76
39.72
40.92
39.65
35.75
29.75
22.61
15.41
8.97
3.62
-0.78
-4.76
-8.93
-13.77
-19.45
-25.78
-32.22
-38.06
-42.68
-45.77
-47.55
-48.69
-50.26
-53.31
-58.62
-66.15
-74.85
-82.69
-87.02
-85.35
-76.23
-59.78
-37.76
-13.08
11.10
32.22
48.81
60.43
67.39
70.28
69.70
66.13
60.15
52.42
43.77
35.19
27.69
22.19
19.28
19.15
21.49
25.57
30.44
35.19
39.13
41.84
43.16
43.04
41.49
38.57
34.45
29.43
23.86
18.09
12.31
6.60
0.95
-4.56
-9.76
-14.45
-18.48
-21.92
-25.02
-28.13
-31.44
-34.89
-38.19
-41.03
-43.30
-45.21
-47.24
-49.99
-54.05
-59.81
-67.29
-75.91
-84.30
-90.39
-91.72
-86.25
-73.06
-52.90
-28.06
-1.71
22.96
43.59
58.97
68.94
73.95
74.65
71.67
65.56
57.06
47.20
37.30
28.74
22.61
19.48
19.25
21.37
25.11
29.88
35.24
40.84
46.20
50.68
53.50
54.14
52.43
48.70
43.62
37.94
32.29
27.06
22.48
18.65
15.55
13.12
11.21
9.62
8.23
7.02
6.12
5.70
5.82
6.40
7.18
7.84
8.17
8.15
7.90
7.58
7.30
6.92
6.29
5.23
3.76
2.11
0.60
-0.46
-1.00
-1.15
-1.22
-1.49
-2.03
-2.73
-3.31
-3.57
-3.49
-3.24
-3.09
-3.23
-3.67
-4.28
-4.88
-5.36
-5.71
-5.93
-6.04
-6.00
-5.79
-5.47
-5.23
-5.35
-5.99
-7.13
-8.50
-9.73
-10.50
-10.67
-10.40
-9.98
-9.78
-9.95
-10.45
-11.09
-11.68
-12.16
-12.60
-13.19
-14.05
-15.20
-16.50
-17.79
-18.97
-20.07
-21.29
-22.85
-24.95
-27.57
-30.55
-33.60
-36.39
-38.73
-40.65
-42.39
-44.34
-46.90
-50.30
-54.47
-59.07
-63.59
-67.50
-70.50
-72.64
-74.39
-76.62
-80.36
-86.45
-95.06
-105.25
-114.89
-120.93
-120.26
-110.72
-91.96
-65.71
-35.35
-4.89
22.20
43.73
59.05
68.60
73.35
74.25
72.09
67.53
61.28
54.16
46.95
40.25
34.40
29.47
25.51
22.62
21.13
21.49
24.04
28.81
35.32
42.58
49.35
54.42
57.03
57.01
54.75
50.99
46.53
41.97
37.62
33.57
29.78
26.15
22.61
19.10
15.59
12.10
8.79
5.86
3.53
1.99
1.27
1.27
1.68
2.13
2.21
1.66
0.44
-1.20
-2.93
-4.40
-5.54
-6.58
-7.94
-10.04
-13.01
-16.62
-20.36
-23.75
-26.54
-28.89
-31.25
-34.13
-37.89
-42.51
-47.62
-52.66
-57.09
-60.58
-63.21
-65.42
-68.02
-71.93
-77.98
-86.43
-96.64
-106.87
-114.46
-116.51
-110.73
-96.30
-74.25
-47.21
-18.60
8.31
31.19
48.86
61.12
68.38
71.31
70.71
67.48
62.55
56.73
50.62
44.54
38.61
32.95
27.80
23.60
20.91
20.26
21.89
25.70
31.13
37.32
43.27
48.09
51.21
52.43
51.93
50.13
47.47
44.32
40.83
37.01
32.72
27.89
22.58
17.09
11.82
7.17
3.35
0.24
-2.45
-5.13
-8.01
-11.09
-14.15
-16.96
-19.40
-21.54
-23.67
-26.08
-28.98
-32.39
-36.14
-39.96
-43.53
-46.75
-49.70
-52.78
-56.59
-61.77
-68.80
-77.63
-87.42
-96.48
-102.44
-102.79
-95.77
-80.97
-59.66
-34.45
-8.50
15.36
35.32
50.66
61.52
68.37
71.73
72.03
69.74
65.46
59.92
53.85
47.79
42.00
36.55
31.48
27.07
23.83
22.40
23.30
26.60
31.82
38.02
43.98
48.61
51.21
51.61
50.04
47.04
43.20
39.05
34.91
30.92
27.01
22.99
18.67
13.94
8.90
3.81
-0.99
-5.23
-8.85
-12.01
-15.06
-18.38
-22.26
-26.74
-31.53
-36.18
-40.24
-43.46
-45.98
-48.28
-51.03
-54.95
-60.54
-67.87
-76.32
-84.44
-90.11
-90.92
-84.96
-71.54
-51.63
-27.60
-2.55
20.68
40.17
55.11
65.49
71.73
74.28
73.66
70.48
65.53
59.63
53.41
47.24
41.21
35.38
29.99
25.52
22.57
21.67
22.99
26.27
30.84
35.84
40.37
43.79
45.73
46.12
45.15
43.12
40.33
37.06
33.50
29.68
25.58
21.10
16.19
10.89
5.46
0.23
-4.50
-8.54
-11.99
-15.19
-18.54
-22.36
-26.63
-31.01
-34.93
-37.85
-39.59
-40.46
-41.28
-43.05
-46.63
-52.37
-59.90
-68.08
-75.12
-79.02
-78.02
-71.10
-58.28
-40.74
-20.49
0.05
18.77
34.21
45.77
53.59
58.20
60.21
60.10
58.13
54.44
49.20
42.70
35.42
27.94
20.86
14.75
10.12
7.31
6.49
7.57
10.24
13.97
18.14
22.21
25.69
28.18
29.36
28.96
26.96
23.59
19.32
14.74
10.29
6.10
2.03
-2.24
-6.95
-12.14
-17.64
-23.12
-28.24
-32.76
-36.51
-39.55
-42.07
-44.54
-47.48
-51.49
-56.85
-63.39
-70.29
-76.14
-79.12
-77.54
-70.31
-57.39
-39.91
-19.81
0.59
19.30
34.93
46.92
55.32
60.45
62.78
62.62
60.23
55.83
49.69
42.25
34.07
25.84
18.25
11.87
7.16
4.37
3.62
4.89
7.93
12.27
17.20
21.81
25.28
26.96
26.61
24.36
20.66
16.09
11.16
6.25
1.46
-3.26
-8.07
-13.13
-18.54
-24.35
-30.53
-36.90
-43.18
-48.97
-53.81
-57.49
-60.22
-62.71
-66.03
-71.18
-78.54
-87.32
-95.58
-100.53
-99.42
-90.50
-73.71
-50.76
-24.63
1.36
24.50
43.12
56.73
65.65
70.51
72.05
70.92
67.76
63.18
57.71
51.76
45.52
39.07
32.58
26.46
21.44
18.38
17.93
20.21
24.61
29.98
35.01
38.73
40.72
41.07
40.09
38.02
34.89
30.69
25.51
19.67
13.58
7.59
1.85
-3.68
-9.10
-14.45
-19.72
-24.84
-29.80
-34.61
-39.26
-43.64
-47.59
-51.04
-54.17
-57.42
-61.43
-66.91
-74.31
-83.41
-93.07
-101.16
-104.93
-101.77
-90.23
-70.60
-45.05
-16.96
10.11
33.41
51.50
64.17
72.05
75.99
76.79
75.06
71.32
66.07
59.78
52.96
46.13
39.84
34.63
30.97
29.16
29.28
31.22
34.64
39.07
43.85
48.26
51.60
53.34
53.24
51.46
48.45
44.77
40.87
36.92
32.86
28.51
23.78
18.79
13.78
9.03
4.68
0.68
-3.18
-7.04
-10.92
-14.61
-17.86
-20.56
-22.82
-25.05
-27.67
-31.01
-35.02
-39.43
-43.78
-47.73
-51.16
-54.28
-57.53
-61.49
-66.81
-73.98
-83.13
-93.63
-103.85
-111.20
-112.73
-106.03
-90.24
-66.58
-37.98
-8.31
18.87
41.16
57.62
68.46
74.51
76.72
75.93
72.87
68.17
62.40
56.04
49.47
43.03
37.16
32.34
29.09
27.78
28.58
31.41
35.89
41.37
47.01
51.85
55.09
56.27
55.40
52.90
49.41
45.51
41.61
37.81
34.09
30.37
26.64
22.93
19.26
15.69
12.27
9.07
6.19
3.70
1.62
-0.08
-1.49
-2.69
-3.83
-5.04
-6.46
-8.20
-10.34
-12.88
-15.69
-18.53
-21.17
-23.45
-25.43
-27.38
-29.78
-33.02
-37.27
-42.35
-47.72
-52.77
-57.05
-60.55
-63.62
-66.94
-71.31
-77.34
-85.29
-94.69
-104.13
-111.26
-113.20
-107.46
-92.86
-70.17
-42.05
-12.25
15.55
38.75
56.25
68.15
75.16
78.06
77.42
73.78
67.85
60.49
52.58
44.85
37.71
31.39
26.15
22.41
20.77
21.68
25.27
31.05
38.01
44.88
50.46
54.02
55.37
54.85
53.01
50.38
47.29
43.85
40.02
35.81
31.30
26.70
22.26
18.17
14.56
11.48
8.87
6.68
4.76
2.97
1.22
-0.48
-1.99
-3.17
-3.98
-4.59
-5.32
-6.49
-8.27
-10.61
-13.23
-15.80
-18.10
-20.08
-21.93
-23.97
-26.54
-29.87
-33.91
-38.36
-42.77
-46.73
-50.06
-52.98
-56.12
-60.24
-66.00
-73.53
-82.23
-90.68
-96.82
-98.40
-93.61
-81.68
-63.20
-40.09
-15.09
8.96
29.76
46.04
57.46
64.37
67.40
67.15
64.17
58.93
51.97
43.88
35.28
26.76
18.87
12.17
7.22
4.60
4.74
7.75
13.26
20.42
28.12
35.17
40.65
44.09
45.40
44.83
42.83
39.85
36.28
32.42
28.43
24.39
20.29
16.16
12.04
8.01
4.16
0.54
-2.78
-5.71
-8.10
-9.78
-10.63
-10.66
-10.12
-9.48
-9.32
-10.05
-11.78
-14.27
-17.08
-19.73
-21.99
-23.95
-25.95
-28.44
-31.75
-35.96
-40.84
-45.98
-50.88
-55.18
-58.85
-62.19
-65.86
-70.69
-77.39
-86.17
-96.45
-106.61
-114.24
-116.66
-111.64
-98.20
-77.09
-50.65
-22.15
5.03
28.27
46.12
58.31
65.42
68.44
68.47
66.41
62.90
58.26
52.61
46.03
38.77
31.44
24.92
20.19
17.98
18.55
21.62
26.50
32.35
38.37
43.84
48.22
51.10
52.20
51.45
48.97
45.15
40.51
35.55
30.62
25.89
21.32
16.80
12.18
7.37
2.38
-2.67
-7.58
-12.09
-15.93
-18.96
-21.18
-22.81
-24.25
-25.96
-28.34
-31.63
-35.82
-40.57
-45.43
-49.88
-53.67
-56.92
-60.25
-64.59
-70.88
-79.56
-90.21
-101.33
-110.46
-114.75
-111.75
-100.25
-80.73
-55.35
-27.32
0.02
24.02
43.21
57.29
66.65
71.95
73.80
72.68
69.10
63.66
57.00
49.83
42.73
36.24
30.90
27.26
25.84
26.96
30.63
36.40
43.43
50.66
57.01
61.58
63.85
63.68
61.32
57.27
52.24
46.94
42.02
37.85
34.45
31.55
28.67
25.33
21.33
16.85
12.38
8.56
5.85
4.28
3.40
2.54
1.04
-1.42
-4.74
-8.46
-12.03
-14.99
-17.22
-18.95
-20.68
-23.03
-26.41
-30.90
-36.23
-41.87
-47.27
-52.11
-56.41
-60.53
-65.08
-70.79
-78.28
-87.80
-98.84
-109.88
-118.41
-121.40
-116.28
-101.90
-79.15
-50.80
-20.59
7.82
31.92
50.58
63.82
72.24
76.55
77.36
75.19
70.63
64.39
57.29
50.12
43.59
38.29
34.64
32.96
33.42
36.03
40.56
46.47
52.96
59.07
63.86
66.65
67.17
65.61
62.44
58.29
53.72
49.09
44.59
40.19
35.82
31.38
26.89
22.49
18.46
15.12
12.69
11.20
10.43
10.00
9.50
8.62
7.26
5.53
3.70
2.05
0.69
-0.44
-1.60
-3.13
-5.34
-8.30
-11.84
-15.58
-19.12
-22.22
-24.97
-27.71
-30.94
-34.95
-39.70
-44.76
-49.53
-53.55
-56.70
-59.30
-61.97
-65.47
-70.52
-77.64
-86.92
-97.66
-108.09
-115.48
-116.69
-109.28
-92.49
-67.82
-38.60
-8.89
17.74
39.15
54.71
64.88
70.53
72.42
71.14
67.25
61.38
54.35
46.99
40.03
34.00
29.29
26.21
25.05
26.02
29.14
34.15
40.42
47.08
53.16
57.83
60.56
61.21
59.97
57.24
53.44
49.01
44.28
39.57
35.10
30.98
27.24
23.86
20.87
18.35
16.43
15.19
14.57
14.41
14.42
14.38
14.17
13.80
13.39
13.07
12.92
12.93
12.98
12.90
12.53
11.76
10.61
9.21
7.76
6.40
5.22
4.19
3.18
2.09
0.85
-0.56
-2.08
-3.64
-5.07
-6.25
-7.08
-7.63
-8.07
-8.70
-9.77
-11.32
-13.19
-15.03
-16.55
-17.65
-18.47
-19.29
-20.42
-22.03
-24.05
-26.32
-28.63
-30.90
-33.24
-35.86
-39.02
-42.85
-47.27
-52.00
-56.61
-60.71
-64.06
-66.71
-69.02
-71.67
-75.50
-81.28
-89.40
-99.38
-109.67
-117.70
-120.50
-115.56
-101.81
-80.06
-52.84
-23.64
4.11
27.85
46.25
59.01
66.58
69.75
69.39
66.39
61.55
55.54
48.88
41.98
35.30
29.39
24.87
22.31
22.02
23.96
27.80
33.03
39.09
45.36
51.17
55.79
58.56
59.03
57.18
53.45
48.62
43.54
38.86
34.84
31.38
28.15
24.82
21.26
17.59
14.12
11.19
9.02
7.64
6.92
6.63
6.56
6.55
6.53
6.48
6.38
6.22
5.94
5.43
4.60
3.40
1.88
0.24
-1.30
-2.67
-4.02
-5.69
-8.10
-11.50
-15.69
-20.17
-24.25
-27.47
-29.72
-31.40
-33.09
-35.31
-38.28
-41.90
-45.86
-49.81
-53.52
-56.88
-59.96
-62.97
-66.31
-70.57
-76.37
-84.02
-93.06
-102.01
-108.39
-109.44
-102.99
-88.35
-66.69
-40.72
-13.86
10.76
31.01
46.03
55.96
61.49
63.47
62.67
59.75
55.23
49.52
42.99
35.96
28.84
22.22
16.86
13.55
12.92
15.21
20.10
26.80
34.15
40.90
46.02
48.89
49.42
47.94
45.03
41.24
36.94
32.30
27.36
22.23
17.06
12.08
7.43
3.09
-1.16
-5.62
-10.46
-15.61
-20.73
-25.36
-29.07
-31.70
-33.40
-34.61
-35.95
-38.09
-41.60
-46.74
-53.40
-60.84
-67.75
-72.24
-72.39
-66.74
-54.92
-37.88
-17.73
2.93
21.74
37.14
48.55
56.10
60.19
61.19
59.31
54.77
47.91
39.41
30.14
21.16
13.40
7.62
4.22
3.29
4.68
8.07
13.07
19.17
25.66
31.64
36.16
38.38
37.89
34.91
30.16
24.65
19.28
14.53
10.34
6.26
1.66
-3.92
-10.49
-17.61
-24.53
-30.41
-34.76
-37.58
-39.40
-41.10
-43.66
-47.74
-53.44
-60.16
-66.53
-70.68
-70.68
-65.15
-53.78
-37.54
-18.47
0.97
18.60
33.09
44.06
51.77
56.63
58.81
58.20
54.62
48.11
39.19
28.80
18.17
8.54
0.97
-3.79
-5.36
-3.76
0.58
6.90
14.16
21.25
27.14
31.09
32.70
31.96
29.20
24.98
19.94
14.57
9.14
3.56
-2.40
-8.94
-15.97
-23.06
-29.59
-34.98
-38.97
-41.80
-44.12
-46.85
-50.87
-56.61
-63.81
-71.36
-77.41
-79.75
-76.50
-66.73
-50.86
-30.69
-8.76
12.28
30.46
44.77
55.06
61.64
64.87
64.96
61.98
56.11
47.86
38.10
27.98
18.69
11.23
6.30
4.22
4.94
8.11
13.07
19.00
24.93
29.93
33.21
34.29
33.08
29.86
25.24
19.89
14.40
9.11
4.04
-1.03
-6.41
-12.38
-19.02
-26.18
-33.51
-40.47
-46.55
-51.43
-55.14
-58.12
-61.27
-65.62
-71.86
-79.91
-88.45
-95.10
-96.98
-91.72
-78.44
-58.19
-33.62
-8.12
15.32
34.85
49.84
60.52
67.34
70.66
70.68
67.67
62.22
55.19
47.66
40.55
34.61
30.32
27.95
27.61
29.18
32.34
36.50
41.04
45.29
48.75
51.02
51.78
50.71
47.59
42.36
35.33
27.19
18.92
11.47
5.46
0.90
-2.77
-6.47
-10.99
-16.71
-23.35
-30.19
-36.33
-41.12
-44.40
-46.62
-48.62
-51.40
-55.85
-62.45
-71.07
-80.76
-89.69
-95.42
-95.42
-87.92
-72.59
-50.77
-25.21
0.81
24.34
43.49
57.60
66.97
72.33
74.40
73.68
70.50
65.25
58.59
51.43
44.88
39.94
37.22
36.88
38.60
41.83
45.92
50.35
54.59
58.18
60.63
61.54
60.67
58.08
54.11
49.33
44.36
39.69
35.62
32.16
29.13
26.34
23.70
21.26
19.16
17.52
16.34
15.53
14.94
14.50
14.21
14.09
14.12
14.21
14.24
14.14
13.90
13.54
13.04
12.31
11.23
9.79
8.07
6.30
4.70
3.40
2.43
1.73
1.26
0.93
0.66
0.36
-0.08
-0.64
-1.26
-1.76
-2.06
-2.12
-2.05
-1.95
-1.90
-1.89
-1.87
-1.81
-1.69
-1.57
-1.46
-1.35
-1.22
-1.09
-1.08
-1.34
-2.02
-3.10
-4.41
-5.71
-6.73
-7.34
-7.56
-7.54
-7.44
-7.38
-7.39
-7.41
-7.40
-7.39
-7.39
-7.48
-7.66
-7.87
-8.07
-8.20
-8.30
-8.42
-8.66
-9.04
-9.52
-10.04
-10.59
-11.29
-12.27
-13.65
-15.40
-17.30
-19.02
-20.24
-20.84
-20.98
-21.06
-21.57
-22.92
-25.25
-28.40
-31.91
-35.29
-38.07
-40.10
-41.56
-42.90
-44.71
-47.45
-51.27
-55.92
-60.87
-65.53
-69.48
-72.73
-75.69
-79.10
-83.82
-90.55
-99.41
-109.67
-119.52
-126.33
-127.16
-119.68
-103.08
-78.46
-48.74
-17.75
10.83
34.43
51.92
63.36
69.49
71.23
69.52
65.28
59.45
52.97
46.60
40.84
35.92
31.96
29.18
27.87
28.30
30.62
34.63
39.90
45.77
51.56
56.53
60.03
61.56
60.97
58.48
54.67
50.24
45.80
41.63
37.66
33.70
29.62
25.49
21.60
18.31
15.83
14.18
13.17
12.63
12.38
12.38
12.58
12.89
13.11
13.08
12.75
12.22
11.72
11.39
11.26
11.15
10.87
10.29
9.46
8.58
7.84
7.32
6.92
6.50
5.88
4.99
3.89
2.64
1.34
0.01
-1.34
-2.65
-3.83
-4.79
-5.52
-6.16
-6.98
-8.22
-9.96
-11.99
-13.89
-15.28
-15.99
-16.21
-16.41
-17.15
-18.77
-21.31
-24.47
-27.79
-30.82
-33.29
-35.22
-36.88
-38.73
-41.24
-44.70
-49.06
-53.97
-58.90
-63.34
-67.11
-70.43
-73.94
-78.47
-84.77
-93.14
-103.11
-113.18
-120.95
-123.63
-118.85
-105.52
-84.33
-57.68
-28.90
-1.35
22.47
41.23
54.61
62.95
66.78
66.76
63.69
58.62
52.64
46.68
41.22
36.30
31.71
27.38
23.60
21.03
20.44
22.36
26.79
33.15
40.44
47.52
53.42
57.54
59.67
59.90
58.53
55.93
52.49
48.50
44.25
39.92
35.65
31.52
27.60
23.96
20.69
17.88
15.62
13.95
12.87
12.36
12.35
12.73
13.34
13.97
14.48
14.75
14.83
14.79
14.75
14.71
14.59
14.24
13.53
12.47
11.17
9.84
8.62
7.54
6.52
5.39
4.05
2.50
0.88
-0.60
-1.77
-2.57
-3.05
-3.40
-3.83
-4.51
-5.55
-6.90
-8.47
-10.07
-11.57
-12.87
-13.99
-15.03
-16.17
-17.62
-19.51
-21.86
-24.55
-27.32
-29.93
-32.28
-34.48
-36.82
-39.68
-43.30
-47.66
-52.47
-57.25
-61.62
-65.45
-68.94
-72.62
-77.20
-83.35
-91.46
-101.23
-111.47
-120.03
-124.15
-121.27
-109.86
-90.17
-64.27
-35.43
-7.12
17.91
38.18
53.32
63.66
69.68
71.86
70.74
67.11
61.97
56.35
50.94
45.87
40.83
35.44
29.72
24.25
20.15
18.67
20.56
25.78
33.41
41.95
49.84
55.90
59.65
61.20
61.06
59.81
57.84
55.32
52.24
48.61
44.46
40.01
35.42
30.89
26.50
22.31
18.38
14.79
11.66
9.07
7.04
5.49
4.32
3.39
2.64
2.04
1.58
1.12
0.46
-0.65
-2.39
-4.70
-7.37
-10.04
-12.43
-14.51
-16.50
-18.80
-21.80
-25.68
-30.30
-35.28
-40.13
-44.47
-48.16
-51.40
-54.64
-58.55
-63.72
-70.50
-78.62
-87.05
-93.92
-96.96
-94.06
-84.09
-67.36
-45.69
-21.87
1.23
21.39
37.48
49.38
57.50
62.32
64.24
63.50
60.38
55.33
48.89
41.57
33.78
25.90
18.38
11.87
7.18
5.03
5.82
9.37
14.97
21.63
28.31
34.16
38.62
41.42
42.46
41.80
39.62
36.17
31.76
26.71
21.29
15.72
10.19
4.79
-0.44
-5.54
-10.61
-15.71
-20.80
-25.68
-30.13
-33.93
-36.98
-39.35
-41.19
-42.86
-44.87
-47.87
-52.43
-58.72
-66.04
-72.74
-76.51
-75.10
-67.21
-53.05
-34.30
-13.54
6.58
24.11
38.09
48.37
55.28
59.28
60.75
59.96
57.12
52.45
46.18
38.66
30.40
22.10
14.57
8.61
4.79
3.43
4.58
8.03
13.34
19.80
26.43
32.14
35.94
37.24
35.98
32.60
27.81
22.37
16.78
11.25
5.76
0.13
-5.78
-12.09
-18.80
-25.81
-32.86
-39.56
-45.51
-50.40
-54.26
-57.45
-60.77
-65.14
-71.27
-79.12
-87.55
-94.33
-96.69
-92.25
-79.90
-60.40
-36.17
-10.53
13.35
33.29
48.42
58.98
65.69
69.28
70.22
68.74
65.03
59.45
52.55
45.06
37.76
31.36
26.45
23.48
22.66
23.99
27.16
31.60
36.57
41.28
45.08
47.51
48.27
47.23
44.40
39.92
34.15
27.64
21.03
14.87
9.44
4.67
0.15
-4.58
-9.94
-16.03
-22.63
-29.28
-35.46
-40.74
-44.94
-48.20
-50.89
-53.66
-57.27
-62.48
-69.72
-78.67
-87.96
-95.20
-97.53
-92.58
-79.41
-59.00
-34.00
-7.83
16.35
36.46
51.66
62.05
68.19
70.73
70.29
67.44
62.81
57.04
50.75
44.45
38.59
33.59
29.87
27.79
27.58
29.25
32.58
37.12
42.17
46.87
50.36
51.94
51.36
48.80
44.87
40.21
35.30
30.28
25.04
19.43
13.52
7.61
2.12
-2.68
-6.87
-10.81
-14.97
-19.64
-24.72
-29.80
-34.38
-38.10
-40.95
-43.22
-45.44
-48.19
-52.11
-57.75
-65.43
-74.82
-84.60
-92.46
-95.51
-91.26
-78.63
-58.51
-33.61
-7.53
16.45
36.24
51.14
61.55
68.10
71.28
71.26
68.15
62.37
54.74
46.40
38.49
31.91
27.16
24.42
23.63
24.63
27.22
31.10
35.85
40.84
45.26
48.28
49.21
47.79
44.26
39.34
33.99
29.04
24.91
21.43
18.01
13.92
8.70
2.41
-4.31
-10.49
-15.25
-18.23
-19.76
-20.76
-22.25
-24.89
-28.67
-32.96
-36.87
-39.74
-41.54
-42.85
-44.68
-48.03
-53.60
-61.48
-71.11
-81.12
-89.49
-93.79
-91.77
-82.08
-64.84
-41.87
-16.20
8.79
30.35
47.03
58.61
65.71
69.13
69.40
66.74
61.30
53.48
44.09
34.34
25.57
18.94
15.17
14.38
16.08
19.47
23.71
28.17
32.51
36.52
39.89
42.09
42.44
40.49
36.19
30.11
23.21
16.52
10.67
5.75
1.34
-3.22
-8.45
-14.47
-20.91
-27.10
-32.35
-36.25
-38.85
-40.58
-42.15
-44.26
-47.52
-52.31
-58.65
-65.97
-73.00
-77.78
-78.09
-72.20
-59.52
-41.02
-19.06
3.33
23.39
39.37
50.75
57.96
61.75
62.73
61.16
57.03
50.46
41.97
32.56
23.52
16.10
11.17
9.04
9.48
11.92
15.71
20.20
24.92
29.39
33.12
35.58
36.25
34.87
31.53
26.72
21.19
15.68
10.67
6.27
2.15
-2.21
-7.28
-13.26
-19.94
-26.76
-33.03
-38.11
-41.73
-44.00
-45.47
-46.92
-49.22
-53.09
-58.77
-65.86
-73.15
-78.73
-80.39
-76.31
-65.65
-49.03
-28.30
-6.08
15.07
33.18
47.23
57.00
62.72
64.78
63.56
59.47
53.03
44.95
36.11
27.45
19.87
14.08
10.62
9.77
11.47
15.34
20.70
26.63
32.15
36.40
38.84
39.30
37.96
35.22
31.58
27.44
23.07
18.58
13.97
9.19
4.26
-0.68
-5.43
-9.79
-13.71
-17.35
-21.04
-25.09
-29.59
-34.29
-38.71
-42.30
-44.75
-46.20
-47.22
-48.65
-51.35
-56.03
-62.96
-71.71
-81.02
-88.67
-92.02
-88.66
-77.39
-58.80
-35.24
-10.04
13.53
33.21
48.12
58.46
64.93
68.11
68.27
65.50
60.03
52.40
43.49
34.37
26.11
19.63
15.56
14.20
15.49
19.01
24.04
29.69
35.04
39.30
41.85
42.39
40.94
37.86
33.74
29.30
25.06
21.21
17.53
13.56
8.93
3.58
-2.17
-7.75
-12.65
-16.73
-20.21
-23.56
-27.16
-31.06
-34.97
-38.41
-41.01
-42.73
-43.95
-45.33
-47.62
-51.51
-57.36
-65.01
-73.61
-81.43
-86.14
-85.35
-77.39
-62.12
-41.11
-17.28
6.07
26.29
41.99
53.03
60.02
63.66
64.31
62.07
57.01
49.50
40.36
30.73
21.83
14.77
10.28
8.66
9.76
13.04
17.76
23.16
28.52
33.30
37.08
39.55
40.47
39.71
37.27
33.34
28.29
22.61
16.74
11.02
5.62
0.55
-4.28
-8.94
-13.48
-17.89
-22.14
-26.16
-29.85
-33.11
-35.87
-38.12
-40.00
-41.84
-44.11
-47.38
-52.18
-58.65
-66.29
-73.66
-78.61
-78.74
-72.31
-58.95
-39.93
-17.78
4.57
24.66
41.03
53.26
61.43
65.85
66.70
64.12
58.47
50.37
40.76
30.73
21.32
13.46
7.81
4.76
4.36
6.34
10.19
15.18
20.53
25.48
29.46
32.04
33.06
32.51
30.49
27.20
22.86
17.79
12.36
6.97
1.91
-2.80
-7.39
-12.27
-17.75
-23.83
-30.11
-35.94
-40.72
-44.11
-46.23
-47.57
-48.88
-50.96
-54.54
-60.05
-67.38
-75.63
-83.01
-87.09
-85.48
-76.60
-60.42
-38.58
-13.91
10.40
31.73
48.59
60.57
68.08
71.79
72.29
69.95
65.09
58.04
49.40
39.96
30.72
22.67
16.69
13.27
12.53
14.18
17.74
22.64
28.39
34.47
40.35
45.30
48.59
49.66
48.33
44.96
40.37
35.56
31.32
27.98
25.43
23.18
20.78
17.98
14.88
11.84
9.27
7.43
6.34
5.82
5.62
5.54
5.48
5.45
5.44
5.37
5.17
4.80
4.35
4.01
3.94
4.16
4.57
4.91
4.98
4.71
4.16
3.38
2.41
1.23
-0.19
-1.74
-3.13
-4.08
-4.45
-4.36
-4.17
-4.27
-4.89
-5.97
-7.18
-8.13
-8.59
-8.57
-8.26
-7.95
-7.79
-7.81
-7.94
-8.07
-8.15
-8.24
-8.46
-8.98
-9.90
-11.24
-12.87
-14.60
-16.21
-17.56
-18.64
-19.63
-20.83
-22.49
-24.74
-27.51
-30.50
-33.35
-35.79
-37.74
-39.42
-41.21
-43.55
-46.72
-50.77
-55.45
-60.35
-65.02
-69.05
-72.29
-74.92
-77.50
-80.96
-86.27
-94.06
-104.03
-114.53
-122.77
-125.38
-119.54
-104.06
-79.88
-49.93
-18.19
11.45
36.18
54.72
67.12
74.26
77.21
76.96
74.29
69.87
64.32
58.19
51.81
45.30
38.60
31.75
25.10
19.44
15.83
15.23
18.01
23.78
31.36
39.24
46.02
50.84
53.53
54.42
54.08
53.03
51.50
49.50
46.91
43.71
40.00
36.05
32.14
28.46
25.01
21.75
18.59
15.57
12.77
10.31
8.22
6.50
5.08
3.93
3.14
2.81
2.99
3.61
4.47
5.28
5.88
6.14
6.14
5.99
5.79
5.59
5.39
5.10
4.66
4.02
3.18
2.18
1.10
-0.01
-1.16
-2.37
-3.65
-5.02
-6.44
-7.89
-9.31
-10.63
-11.83
-12.94
-14.06
-15.35
-16.99
-19.07
-21.57
-24.29
-26.98
-29.43
-31.62
-33.70
-35.94
-38.59
-41.74
-45.35
-49.23
-53.15
-56.96
-60.55
-63.87
-67.02
-70.25
-73.97
-78.82
-85.38
-93.81
-103.46
-112.59
-118.55
-118.47
-110.22
-93.30
-69.15
-40.79
-11.80
14.63
36.49
53.04
64.51
71.50
74.72
74.79
72.36
68.13
62.80
56.86
50.60
44.04
37.15
30.08
23.28
17.49
13.57
12.23
13.80
18.11
24.51
32.02
39.56
46.18
51.20
54.25
55.35
54.75
52.94
50.40
47.56
44.65
41.67
38.53
35.11
31.41
27.55
23.72
20.08
16.70
13.62
10.85
8.50
6.71
5.61
5.16
5.11
5.14
4.92
4.33
3.46
2.56
1.91
1.62
1.68
1.84
1.91
1.72
1.23
0.43
-0.69
-2.14
-3.93
-5.97
-8.08
-10.08
-11.89
-13.58
-15.33
-17.35
-19.72
-22.33
-24.99
-27.60
-30.24
-33.19
-36.78
-41.14
-46.13
-51.30
-56.15
-60.32
-63.74
-66.68
-69.64
-73.23
-78.02
-84.44
-92.57
-101.86
-110.88
-117.35
-118.61
-112.43
-97.88
-75.75
-48.51
-19.53
7.86
31.22
49.39
62.30
70.57
75.05
76.58
75.77
73.13
69.03
63.74
57.43
50.24
42.43
34.40
26.77
20.29
15.75
13.82
14.80
18.54
24.43
31.50
38.65
44.93
49.70
52.74
54.20
54.45
53.86
52.71
51.14
49.14
46.62
43.47
39.70
35.35
30.61
25.67
20.76
16.03
11.60
7.57
4.02
0.99
-1.55
-3.79
-6.00
-8.42
-11.12
-13.91
-16.43
-18.36
-19.57
-20.33
-21.12
-22.51
-24.85
-28.15
-32.07
-36.13
-39.87
-43.05
-45.78
-48.43
-51.66
-56.16
-62.38
-70.12
-78.30
-85.04
-88.05
-85.40
-76.18
-60.90
-41.27
-19.68
1.55
20.71
36.77
49.34
58.30
63.68
65.64
64.53
60.90
55.38
48.61
41.03
33.03
25.01
17.54
11.40
7.38
6.07
7.64
11.73
17.63
24.45
31.34
37.62
42.81
46.60
48.87
49.65
49.13
47.60
45.37
42.67
39.63
36.25
32.48
28.31
23.83
19.22
14.73
10.58
6.93
3.79
1.11
-1.21
-3.33
-5.38
-7.48
-9.69
-12.01
-14.36
-16.59
-18.51
-20.00
-21.07
-21.95
-22.99
-24.60
-27.06
-30.43
-34.50
-38.84
-43.00
-46.62
-49.61
-52.25
-55.11
-58.92
-64.42
-71.98
-81.36
-91.44
-100.16
-104.95
-103.40
-94.10
-77.22
-54.56
-28.99
-3.58
19.20
37.93
52.22
62.26
68.49
71.40
71.43
69.09
64.87
59.24
52.52
44.99
36.93
28.85
21.43
15.48
11.76
10.69
12.39
16.57
22.65
29.81
37.09
43.57
48.46
51.35
52.23
51.42
49.43
46.71
43.56
40.13
36.44
32.57
28.66
24.82
21.08
17.35
13.52
9.57
5.67
2.10
-0.87
-3.12
-4.74
-6.05
-7.40
-9.13
-11.35
-14.00
-16.84
-19.57
-21.94
-23.86
-25.53
-27.34
-29.82
-33.39
-38.16
-43.82
-49.73
-55.17
-59.66
-63.20
-66.31
-69.92
-75.14
-82.80
-93.07
-105.04
-116.59
-124.67
-126.13
-118.71
-101.94
-77.40
-48.25
-18.21
9.53
32.96
51.30
64.57
73.13
77.43
78.05
75.79
71.72
66.87
61.98
57.24
52.43
47.26
41.71
36.26
31.83
29.49
30.02
33.60
39.73
47.29
54.94
61.40
65.77
67.67
67.24
64.93
61.32
56.96
52.26
47.47
42.68
37.90
33.05
28.07
22.92
17.70
12.57
7.80
3.72
0.54
-1.63
-2.96
-3.81
-4.72
-6.13
-8.31
-11.15
-14.23
-17.04
-19.19
-20.74
-22.15
-24.15
-27.27
-31.65
-36.81
-42.02
-46.56
-50.18
-53.18
-56.23
-60.19
-65.75
-73.31
-82.90
-93.88
-104.82
-113.39
-116.74
-112.29
-98.73
-76.73
-48.89
-19.01
9.16
32.96
51.25
64.12
72.38
76.82
78.07
76.61
72.92
67.59
61.25
54.48
47.66
41.16
35.35
30.71
27.80
27.05
28.70
32.60
38.21
44.70
51.12
56.52
60.15
61.61
60.91
58.46
54.90
50.86
46.81
42.85
38.89
34.70
30.23
25.59
21.11
17.13
13.85
11.33
9.36
7.68
6.07
4.41
2.75
1.24
0.02
-0.85
-1.46
-2.10
-3.09
-4.73
-7.14
-10.17
-13.46
-16.56
-19.18
-21.26
-23.15
-25.41
-28.59
-32.97
-38.32
-44.03
-49.36
-53.77
-57.18
-60.00
-62.92
-66.79
-72.31
-79.91
-89.49
-100.07
-109.67
-115.51
-114.70
-105.24
-86.90
-61.47
-32.26
-3.07
22.92
43.82
59.05
68.94
74.25
75.78
74.24
70.31
64.65
57.84
50.42
42.82
35.42
28.71
23.19
19.45
17.94
18.92
22.31
27.64
34.12
40.73
46.46
50.51
52.45
52.23
50.17
46.73
42.39
37.58
32.58
27.57
22.69
18.01
13.56
9.35
5.35
1.56
-2.03
-5.32
-8.23
-10.65
-12.54
-13.96
-15.15
-16.42
-18.13
-20.52
-23.63
-27.30
-31.17
-34.84
-38.02
-40.69
-43.11
-45.77
-49.33
-54.36
-61.16
-69.39
-77.85
-84.46
-86.77
-82.63
-71.06
-52.75
-29.89
-5.53
17.39
36.81
51.80
62.31
68.67
71.24
70.29
66.15
59.38
50.82
41.39
31.99
23.31
15.92
10.33
6.99
6.28
8.32
12.75
18.78
25.35
31.35
35.93
38.62
39.36
38.32
35.80
32.14
27.57
22.31
16.56
10.54
4.55
-1.11
-6.16
-10.52
-14.34
-17.97
-21.80
-26.11
-30.91
-35.87
-40.51
-44.36
-47.23
-49.21
-50.77
-52.59
-55.47
-60.08
-66.64
-74.62
-82.52
-88.02
-88.58
-82.22
-68.34
-48.11
-24.11
0.45
22.73
40.97
54.60
63.87
69.38
71.55
70.62
66.75
60.30
51.90
42.48
33.07
24.62
17.91
13.50
11.72
12.60
15.85
20.87
26.81
32.69
37.60
40.90
42.26
41.71
39.53
36.06
31.62
26.48
20.85
14.99
9.24
3.98
-0.54
-4.35
-7.77
-11.37
-15.63
-20.75
-26.44
-32.07
-36.93
-40.58
-42.96
-44.45
-45.65
-47.28
-50.00
-54.40
-60.85
-69.17
-78.30
-86.19
-90.13
-87.58
-77.10
-59.04
-35.55
-9.87
14.67
35.60
51.69
62.81
69.45
72.27
71.77
68.38
62.51
54.69
45.69
36.36
27.63
20.32
15.07
12.23
11.89
13.84
17.66
22.73
28.29
33.58
37.86
40.60
41.51
40.60
38.12
34.39
29.80
24.69
19.30
13.81
8.37
3.11
-1.85
-6.48
-10.83
-15.06
-19.40
-23.95
-28.68
-33.28
-37.33
-40.46
-42.54
-43.79
-44.81
-46.45
-49.54
-54.66
-61.67
-69.56
-76.39
-79.70
-77.27
-67.86
-51.74
-30.73
-7.60
14.77
34.12
49.24
59.85
66.21
68.76
67.86
63.83
57.07
48.21
38.13
27.88
18.55
11.04
5.95
3.54
3.77
6.27
10.53
15.92
21.75
27.37
32.12
35.43
36.88
36.24
33.57
29.20
23.72
17.83
12.13
6.99
2.40
-1.91
-6.37
-11.30
-16.76
-22.43
-27.79
-32.24
-35.40
-37.21
-38.01
-38.43
-39.28
-41.37
-45.29
-51.15
-58.30
-65.23
-69.76
-69.64
-63.28
-50.45
-32.39
-11.56
9.22
27.52
41.90
51.94
57.97
60.55
60.16
57.01
51.26
43.23
33.56
23.26
13.47
5.23
-0.78
-4.25
-5.19
-3.75
-0.13
5.26
11.76
18.31
23.73
26.97
27.49
25.44
21.52
16.67
11.66
6.90
2.34
-2.35
-7.64
-13.79
-20.77
-28.16
-35.29
-41.41
-46.04
-49.13
-51.19
-53.15
-56.08
-60.85
-67.70
-75.89
-83.69
-88.61
-88.02
-80.14
-64.62
-42.93
-17.90
7.11
29.26
46.83
59.35
67.22
71.11
71.55
68.84
63.20
55.01
45.00
34.25
23.94
15.21
8.87
5.31
4.51
6.14
9.73
14.75
20.63
26.71
32.19
36.17
37.86
36.86
33.23
27.63
21.02
14.39
8.45
3.38
-1.21
-5.99
-11.64
-18.50
-26.37
-34.53
-42.06
-48.16
-52.50
-55.40
-57.60
-60.12
-63.91
-69.58
-77.16
-85.81
-93.66
-98.09
-96.38
-86.64
-68.65
-44.16
-16.41
10.91
34.74
53.35
66.43
74.58
78.67
79.44
77.34
72.68
65.85
57.45
48.33
39.49
31.94
26.53
23.74
23.62
25.83
29.84
35.02
40.80
46.58
51.70
55.48
57.37
57.10
54.86
51.24
47.02
42.94
39.40
36.37
33.52
30.42
26.81
22.77
18.64
14.91
12.02
10.19
9.35
9.19
9.30
9.33
9.13
8.68
8.12
7.63
7.34
7.32
7.49
7.75
7.95
8.00
7.84
7.46
6.87
6.10
5.13
3.98
2.66
1.27
-0.04
-1.09
-1.75
-2.03
-2.10
-2.15
-2.37
-2.78
-3.32
-3.88
-4.35
-4.71
-5.00
-5.31
-5.70
-6.23
-6.91
-7.69
-8.49
-9.25
-9.95
-10.66
-11.52
-12.63
-13.98
-15.43
-16.77
-17.82
-18.58
-19.24
-20.13
-21.60
-23.85
-26.84
-30.34
-33.95
-37.26
-40.01
-42.18
-44.07
-46.18
-49.06
-53.00
-57.95
-63.46
-68.88
-73.58
-77.32
-80.33
-83.35
-87.42
-93.59
-102.31
-113.04
-123.85
-131.69
-133.06
-125.21
-107.12
-80.05
-47.23
-12.88
18.97
45.47
65.24
78.21
85.09
86.97
84.99
80.36
74.17
67.34
60.45
53.68
46.98
40.29
33.84
28.19
24.17
22.66
24.13
28.50
35.04
42.56
49.72
55.41
58.93
60.11
59.19
56.68
53.19
49.28
45.34
41.52
37.79
34.00
29.99
25.73
21.26
16.75
12.44
8.63
5.56
3.39
2.09
1.45
1.10
0.67
-0.11
-1.24
-2.53
-3.71
-4.62
-5.30
-6.03
-7.12
-8.83
-11.18
-13.94
-16.74
-19.26
-21.31
-23.00
-24.69
-26.84
-29.88
-34.01
-39.10
-44.72
-50.27
-55.24
-59.43
-63.08
-66.88
-71.78
-78.56
-87.36
-97.23
-106.09
-111.11
-109.44
-99.29
-80.56
-55.07
-26.02
2.89
28.54
48.99
63.62
72.78
77.30
78.07
75.84
71.26
64.98
57.65
49.86
42.05
34.52
27.53
21.41
16.65
13.89
13.72
16.42
21.76
28.90
36.67
43.78
49.20
52.32
53.05
51.64
48.57
44.43
39.79
35.12
30.73
26.78
23.25
20.04
17.04
14.15
11.39
8.80
6.49
4.52
2.95
1.78
0.98
0.48
0.24
0.25
0.53
1.17
2.24
3.77
5.68
7.71
9.45
10.40
10.21
8.74
6.19
3.04
-0.14
-2.96
-5.27
-7.27
-9.33
-11.77
-14.74
-18.12
-21.65
-25.04
-28.15
-31.00
-33.75
-36.68
-40.00
-43.83
-48.15
-52.80
-57.56
-62.17
-66.41
-70.14
-73.39
-76.42
-79.86
-84.60
-91.49
-100.84
-111.74
-121.90
-127.93
-126.41
-115.15
-94.17
-65.90
-34.33
-3.64
23.02
44.10
59.44
69.63
75.37
77.24
75.78
71.75
66.05
59.58
52.98
46.45
39.98
33.58
27.67
23.06
20.70
21.30
25.00
31.20
38.76
46.32
52.70
57.16
59.47
59.87
58.72
56.46
53.36
49.61
45.35
40.71
35.85
30.89
25.90
21.01
16.36
12.15
8.54
5.59
3.24
1.33
-0.26
-1.59
-2.67
-3.50
-4.24
-5.19
-6.64
-8.72
-11.32
-14.07
-16.61
-18.71
-20.45
-22.18
-24.31
-27.15
-30.78
-35.05
-39.66
-44.31
-48.75
-52.93
-56.92
-61.00
-65.59
-71.25
-78.49
-87.37
-97.11
-105.84
-110.86
-109.38
-99.58
-81.35
-56.58
-28.51
-0.73
23.87
43.67
58.25
67.96
73.35
74.92
73.09
68.41
61.61
53.60
45.23
37.21
29.98
23.81
18.94
15.66
14.37
15.50
19.21
25.30
33.05
41.28
48.67
54.05
56.77
56.82
54.73
51.34
47.45
43.61
39.98
36.43
32.71
28.64
24.25
19.73
15.37
11.46
8.14
5.46
3.37
1.78
0.63
-0.17
-0.66
-0.89
-0.85
-0.51
0.21
1.28
2.59
3.92
5.00
5.65
5.77
5.29
4.14
2.20
-0.64
-4.35
-8.70
-13.26
-17.61
-21.44
-24.81
-28.04
-31.61
-35.87
-40.93
-46.53
-52.23
-57.54
-62.12
-65.91
-69.20
-72.56
-76.85
-82.93
-91.42
-102.16
-113.79
-123.72
-128.60
-125.32
-112.21
-89.82
-60.80
-29.15
1.10
26.97
46.98
61.02
69.73
73.97
74.56
72.25
67.84
62.11
55.80
49.35
43.01
36.92
31.31
26.65
23.61
22.87
24.87
29.59
36.48
44.51
52.40
58.89
63.04
64.41
63.10
59.66
54.91
49.70
44.68
40.20
36.22
32.45
28.53
24.21
19.50
14.66
10.14
6.31
3.35
1.17
-0.47
-1.86
-3.24
-4.76
-6.49
-8.46
-10.61
-12.88
-15.19
-17.62
-20.33
-23.59
-27.58
-32.22
-37.17
-41.94
-46.17
-49.88
-53.50
-57.80
-63.64
-71.61
-81.57
-92.42
-101.96
-107.29
-105.57
-95.07
-75.90
-50.15
-21.36
6.69
30.98
49.94
63.35
71.81
76.12
76.93
74.74
70.02
63.41
55.70
47.70
40.10
33.46
28.20
24.63
23.04
23.66
26.53
31.38
37.60
44.25
50.31
54.84
57.31
57.64
56.18
53.44
49.97
46.07
41.87
37.29
32.29
26.90
21.33
15.94
11.10
7.10
4.00
1.63
-0.35
-2.31
-4.41
-6.62
-8.66
-10.27
-11.34
-12.04
-12.84
-14.24
-16.62
-19.99
-24.06
-28.33
-32.36
-35.98
-39.33
-42.83
-47.03
-52.50
-59.55
-67.95
-76.71
-83.99
-87.42
-84.75
-74.76
-57.81
-35.87
-11.99
10.77
30.11
45.02
55.50
62.11
65.39
65.64
63.00
57.67
50.10
40.99
31.28
21.95
13.90
7.90
4.48
3.90
6.12
10.80
17.34
24.91
32.51
39.11
43.80
46.00
45.62
43.01
38.89
34.05
29.12
24.48
20.20
16.21
12.34
8.47
4.54
0.54
-3.47
-7.37
-10.96
-13.95
-16.09
-17.22
-17.43
-17.12
-16.92
-17.47
-19.18
-22.01
-25.54
-29.11
-32.18
-34.53
-36.38
-38.27
-40.94
-45.08
-51.19
-59.28
-68.62
-77.58
-83.78
-84.68
-78.44
-64.68
-44.77
-21.45
2.06
23.05
39.85
52.02
59.87
64.01
64.94
62.96
58.31
51.34
42.63
33.00
23.46
15.00
8.51
4.60
3.48
5.01
8.67
13.82
19.67
25.47
30.49
34.17
36.08
36.02
34.02
30.29
25.17
19.08
12.47
5.73
-0.68
-6.41
-11.23
-15.13
-18.40
-21.49
-24.87
-28.78
-33.13
-37.50
-41.41
-44.51
-46.79
-48.59
-50.54
-53.42
-58.00
-64.78
-73.60
-83.23
-91.44
-95.33
-92.32
-81.10
-62.32
-38.35
-12.55
11.86
32.67
48.87
60.44
67.73
71.11
70.90
67.44
61.35
53.49
44.93
36.73
29.74
24.56
21.49
20.49
21.32
23.53
26.62
30.09
33.50
36.44
38.54
39.48
38.93
36.74
32.92
27.70
21.53
14.98
8.60
2.84
-2.11
-6.36
-10.17
-13.90
-17.85
-22.04
-26.31
-30.35
-33.88
-36.78
-39.19
-41.49
-44.23
-48.06
-53.52
-60.83
-69.53
-78.22
-84.68
-86.28
-80.87
-67.64
-47.61
-23.36
1.72
24.55
43.16
56.86
65.95
71.14
73.06
72.18
68.89
63.75
57.39
50.57
43.93
38.01
33.26
30.09
28.83
29.66
32.43
36.69
41.72
46.73
51.01
54.02
55.38
54.94
52.71
48.88
43.91
38.42
33.06
28.35
24.53
21.44
18.77
16.18
13.57
11.09
9.05
7.76
7.28
7.39
7.66
7.70
7.27
6.43
5.42
4.49
3.81
3.37
3.08
2.71
2.03
0.78
-1.21
-3.92
-7.08
-10.23
-12.88
-14.75
-15.92
-16.81
-17.99
-19.91
-22.62
-25.85
-29.10
-31.94
-34.18
-35.98
-37.69
-39.71
-42.38
-45.81
-49.91
-54.39
-58.85
-62.91
-66.33
-69.17
-71.79
-74.94
-79.51
-86.30
-95.44
-105.96
-115.52
-120.82
-118.58
-106.72
-85.37
-56.97
-25.55
4.62
30.26
49.69
62.78
70.29
73.25
72.64
69.30
64.10
57.89
51.43
45.22
39.56
34.67
30.79
28.27
27.45
28.51
31.35
35.63
40.81
46.24
51.21
54.99
56.97
56.74
54.37
50.30
45.34
40.32
35.78
31.89
28.42
24.94
21.11
16.87
12.48
8.40
5.15
2.98
1.83
1.31
0.88
0.13
-1.02
-2.31
-3.31
-3.73
-3.63
-3.45
-3.81
-5.17
-7.58
-10.68
-13.85
-16.58
-18.73
-20.59
-22.67
-25.45
-29.15
-33.60
-38.41
-43.14
-47.46
-51.22
-54.49
-57.53
-60.82
-65.05
-70.94
-78.85
-88.26
-97.43
-103.61
-103.79
-95.85
-79.45
-56.31
-29.66
-3.15
20.20
38.76
52.18
60.93
65.77
67.30
65.89
61.84
55.52
47.49
38.43
29.11
20.38
13.09
8.01
5.71
6.35
9.65
14.92
21.22
27.68
33.59
38.48
41.98
43.76
43.49
40.99
36.37
30.15
23.12
16.12
9.78
4.33
-0.34
-4.58
-8.75
-13.12
-17.76
-22.59
-27.36
-31.73
-35.36
-38.06
-39.90
-41.31
-43.00
-45.75
-50.18
-56.49
-64.18
-71.99
-77.95
-79.82
-75.72
-64.84
-47.81
-26.65
-4.15
16.98
34.75
48.26
57.51
62.94
65.11
64.47
61.35
56.08
49.04
40.73
31.82
23.16
15.75
10.49
7.98
8.29
10.98
15.29
20.34
25.48
30.20
34.09
36.77
37.86
37.11
34.52
30.41
25.29
19.73
14.20
8.97
4.10
-0.48
-4.94
-9.51
-14.39
-19.72
-25.41
-31.19
-36.63
-41.30
-44.96
-47.62
-49.59
-51.43
-53.87
-57.61
-63.17
-70.46
-78.55
-85.54
-88.91
-86.24
-76.12
-58.78
-36.20
-11.47
12.21
32.44
48.08
59.11
66.10
69.66
70.17
67.84
62.94
56.01
47.85
39.39
31.47
24.76
19.65
16.39
15.11
15.80
18.34
22.39
27.37
32.57
37.16
40.52
42.20
42.03
40.07
36.51
31.62
25.73
19.31
12.85
6.88
1.77
-2.39
-5.92
-9.37
-13.40
-18.39
-24.29
-30.60
-36.51
-41.28
-44.47
-46.18
-47.03
-48.02
-50.28
-54.66
-61.40
-69.75
-77.90
-83.31
-83.33
-76.09
-61.29
-40.34
-16.05
8.31
29.92
47.10
59.38
67.18
71.24
72.24
70.60
66.58
60.46
52.66
43.83
34.77
26.37
19.44
14.62
12.25
12.38
14.70
18.70
23.72
28.96
33.69
37.20
39.02
38.92
36.96
33.46
28.91
23.87
18.81
14.12
9.89
5.95
1.93
-2.62
-7.97
-14.06
-20.45
-26.50
-31.61
-35.44
-38.07
-39.89
-41.51
-43.54
-46.54
-50.94
-56.87
-63.89
-70.79
-75.59
-76.07
-70.47
-58.25
-40.45
-19.36
2.19
21.80
38.01
50.39
59.11
64.46
66.50
65.21
60.67
53.38
44.18
34.13
24.26
15.43
8.26
3.13
0.32
-0.12
1.71
5.51
10.74
16.72
22.56
27.36
30.29
30.84
29.02
25.36
20.76
16.14
12.10
8.65
5.27
1.24
-3.94
-10.29
-17.28
-24.07
-29.83
-34.15
-37.14
-39.29
-41.38
-44.18
-48.32
-54.03
-60.94
-67.91
-73.02
-74.01
-68.95
-57.10
-39.24
-17.57
5.01
25.82
43.07
56.04
64.77
69.64
71.03
69.25
64.65
57.80
49.43
40.34
31.22
22.63
15.03
8.91
4.76
3.03
3.97
7.45
12.94
19.53
26.09
31.64
35.50
37.49
37.82
36.93
35.30
33.26
30.96
28.43
25.68
22.72
19.60
16.38
13.12
9.86
6.70
3.81
1.34
-0.61
-2.08
-3.21
-4.18
-5.08
-5.94
-6.71
-7.35
-7.92
-8.55
-9.38
-10.41
-11.54
-12.68
-13.83
-15.23
-17.19
-19.93
-23.35
-27.05
-30.44
-33.17
-35.27
-37.29
-39.97
-43.88
-49.02
-54.80
-60.31
-64.72
-67.73
-69.70
-71.54
-74.31
-78.92
-85.86
-95.02
-105.56
-115.72
-123.03
-124.57
-117.81
-101.58
-76.69
-45.94
-13.34
17.04
42.21
60.82
72.95
79.59
81.90
80.94
77.57
72.53
66.50
60.01
53.34
46.56
39.76
33.16
27.30
22.94
20.83
21.47
24.81
30.33
37.02
43.72
49.33
53.13
54.82
54.58
52.90
50.32
47.29
44.02
40.54
36.82
32.87
28.81
24.79
20.96
17.40
14.18
11.33
8.88
6.86
5.25
4.03
3.18
2.65
2.38
2.24
2.05
1.70
1.11
0.29
-0.71
-1.85
-3.14
-4.61
-6.34
-8.40
-10.85
-13.72
-16.97
-20.44
-23.84
-26.89
-29.40
-31.49
-33.55
-36.11
-39.55
-43.87
-48.70
-53.45
-57.66
-61.16
-64.19
-67.23
-70.88
-75.76
-82.35
-90.79
-100.53
-110.07
-116.95
-118.29
-111.72
-96.29
-73.03
-44.75
-15.17
12.19
34.89
51.93
63.46
70.30
73.45
73.77
71.96
68.56
63.95
58.41
52.08
45.07
37.53
29.79
22.39
16.10
11.72
9.96
11.14
15.05
20.93
27.72
34.32
39.82
43.71
45.83
46.25
45.19
42.92
39.77
36.07
32.10
28.03
23.89
19.60
15.07
10.25
5.22
0.08
-4.95
-9.72
-14.01
-17.63
-20.50
-22.69
-24.50
-26.38
-28.73
-31.75
-35.31
-39.06
-42.52
-45.39
-47.65
-49.59
-51.72
-54.67
-59.04
-65.19
-73.05
-81.78
-89.71
-94.46
-93.62
-85.51
-69.97
-48.52
-23.95
0.59
22.48
40.26
53.62
62.95
68.82
71.60
71.45
68.51
63.15
56.03
47.97
39.79
32.06
25.07
18.98
14.01
10.54
9.10
10.11
13.65
19.26
25.98
32.59
37.92
41.16
42.05
40.82
38.09
34.62
31.05
27.69
24.53
21.23
17.40
12.76
7.28
1.20
-5.04
-10.96
-16.21
-20.70
-24.60
-28.27
-32.10
-36.38
-41.12
-46.08
-50.87
-55.09
-58.53
-61.33
-63.95
-67.21
-72.07
-79.23
-88.78
-99.66
-109.62
-115.58
-114.56
-104.69
-85.98
-60.49
-31.57
-2.84
22.81
43.83
59.83
71.15
78.30
81.72
81.72
78.71
73.30
66.22
58.27
50.07
42.14
34.91
28.84
24.47
22.28
22.66
25.60
30.78
37.43
44.61
51.25
56.46
59.66
60.63
59.55
56.84
53.03
48.61
43.91
39.11
34.24
29.28
24.24
19.16
14.17
9.38
4.84
0.50
-3.73
-7.90
-11.94
-15.62
-18.68
-20.99
-22.69
-24.18
-26.01
-28.64
-32.27
-36.73
-41.59
-46.31
-50.49
-53.96
-56.92
-59.92
-63.80
-69.49
-77.65
-88.23
-99.98
-110.45
-116.33
-114.52
-103.16
-82.51
-54.96
-24.27
5.60
31.62
52.22
67.16
77.00
82.50
84.29
82.93
78.97
73.08
65.97
58.28
50.52
43.10
36.50
31.20
27.78
26.68
28.12
31.96
37.69
44.48
51.33
57.25
61.45
63.51
63.40
61.46
58.21
54.20
49.89
45.54
41.24
36.97
32.63
28.19
23.69
19.31
15.34
12.04
9.59
7.93
6.81
5.85
4.70
3.20
1.46
-0.20
-1.47
-2.20
-2.63
-3.22
-4.52
-6.81
-9.99
-13.53
-16.77
-19.23
-20.87
-22.18
-23.92
-26.80
-31.10
-36.60
-42.67
-48.50
-53.50
-57.44
-60.50
-63.22
-66.33
-70.62
-76.79
-85.15
-95.24
-105.49
-113.24
-115.33
-109.08
-93.40
-69.41
-40.15
-9.72
18.10
40.77
57.36
68.25
74.39
76.78
76.06
72.65
66.94
59.44
50.78
41.72
33.00
25.30
19.21
15.18
13.53
14.35
17.45
22.35
28.36
34.67
40.40
44.84
47.43
47.88
46.14
42.50
37.47
31.71
25.90
20.48
15.65
11.25
6.92
2.25
-3.04
-9.00
-15.40
-21.78
-27.63
-32.46
-36.06
-38.56
-40.49
-42.66
-45.94
-50.91
-57.51
-64.83
-71.07
-74.01
-71.58
-62.69
-47.63
-28.08
-6.62
14.12
32.10
46.28
56.46
62.94
66.10
66.22
63.52
58.30
51.06
42.48
33.39
24.61
16.89
10.91
7.13
5.81
6.86
9.88
14.23
19.17
24.05
28.31
31.55
33.44
33.78
32.45
29.52
25.25
20.13
14.68
9.40
4.56
0.14
-4.10
-8.54
-13.52
-19.15
-25.31
-31.60
-37.52
-42.54
-46.40
-49.11
-51.09
-53.05
-55.81
-60.07
-66.15
-73.65
-81.35
-87.19
-88.80
-84.09
-72.09
-53.40
-30.18
-5.53
17.43
36.41
50.39
59.54
64.69
66.75
66.35
63.77
59.10
52.49
44.37
35.45
26.65
18.91
13.09
9.78
9.25
11.41
15.82
21.75
28.27
34.39
39.23
42.16
42.96
41.74
38.86
34.83
30.10
25.02
19.78
14.49
9.21
4.04
-0.92
-5.56
-9.80
-13.67
-17.32
-20.99
-24.95
-29.31
-33.99
-38.65
-42.90
-46.42
-49.16
-51.50
-54.18
-58.08
-63.82
-71.36
-79.65
-86.62
-89.65
-86.37
-75.51
-57.48
-34.32
-9.10
14.97
35.43
50.99
61.44
67.26
69.17
67.90
64.01
58.07
50.66
42.41
33.98
26.10
19.50
14.84
12.58
12.85
15.40
19.70
25.02
30.56
35.60
39.48
41.74
42.17
40.88
38.17
34.47
30.17
25.48
20.48
15.21
9.78
4.42
-0.64
-5.27
-9.55
-13.73
-18.11
-22.83
-27.74
-32.41
-36.34
-39.13
-40.76
-41.64
-42.51
-44.24
-47.55
-52.82
-59.94
-68.13
-75.89
-81.12
-81.53
-75.36
-62.06
-42.69
-19.74
3.65
24.63
41.41
53.47
61.18
65.28
66.29
64.48
59.94
52.95
44.13
34.45
25.06
17.03
11.22
8.12
7.85
10.19
14.66
20.66
27.44
34.29
40.45
45.28
48.30
49.29
48.35
45.86
42.32
38.28
34.14
30.17
26.42
22.87
19.45
16.13
12.94
9.99
7.45
5.53
4.38
4.07
4.50
5.44
6.63
7.82
8.87
9.72
10.33
10.64
10.56
9.98
8.88
7.40
5.82
4.48
3.61
3.25
3.18
3.12
2.82
2.22
1.42
0.63
0.01
-0.43
-0.76
-1.10
-1.51
-1.93
-2.21
-2.23
-1.95
-1.52
-1.21
-1.29
-1.88
-2.89
-4.05
-5.01
-5.53
-5.61
-5.43
-5.31
-5.45
-5.94
-6.63
-7.32
-7.82
-8.09
-8.25
-8.54
-9.22
-10.42
-12.10
-14.02
-15.84
-17.23
-18.06
-18.48
-18.85
-19.62
-21.16
-23.60
-26.80
-30.41
-33.97
-37.10
-39.61
-41.57
-43.31
-45.30
-48.00
-51.64
-56.13
-61.00
-65.59
-69.38
-72.18
-74.32
-76.56
-79.90
-85.23
-92.97
-102.69
-112.81
-120.67
-123.15
-117.58
-102.76
-79.58
-50.86
-20.44
8.02
32.00
50.41
63.32
71.30
75.02
75.03
71.98
66.65
59.91
52.55
45.11
37.94
31.27
25.47
21.05
18.56
18.46
20.87
25.57
31.93
39.08
46.01
51.83
55.92
57.99
58.08
56.47
53.55
49.77
45.57
41.32
37.26
33.48
29.85
26.20
22.36
18.36
14.36
10.66
7.50
5.00
3.14
1.76
0.67
-0.30
-1.22
-2.07
-2.74
-3.14
-3.25
-3.28
-3.54
-4.43
-6.25
-9.05
-12.57
-16.32
-19.78
-22.58
-24.67
-26.38
-28.29
-31.00
-34.90
-39.95
-45.70
-51.47
-56.60
-60.74
-64.00
-66.92
-70.30
-75.06
-81.90
-90.96
-101.50
-111.57
-118.32
-118.67
-110.39
-93.04
-68.25
-39.34
-10.14
16.09
37.43
53.27
63.90
69.96
72.08
70.88
67.03
61.33
54.55
47.27
39.88
32.65
25.94
20.29
16.42
14.88
15.98
19.60
25.25
32.15
39.40
46.06
51.28
54.47
55.36
54.15
51.37
47.71
43.75
39.80
35.89
31.84
27.57
23.09
18.59
14.29
10.37
6.92
3.95
1.52
-0.30
-1.46
-1.97
-2.01
-1.90
-2.05
-2.83
-4.41
-6.73
-9.44
-12.15
-14.54
-16.64
-18.83
-21.68
-25.67
-30.90
-36.96
-43.08
-48.48
-52.71
-55.89
-58.64
-61.90
-66.68
-73.72
-83.20
-94.41
-105.52
-113.79
-116.09
-109.92
-94.38
-70.66
-41.76
-11.54
16.46
39.82
57.54
69.65
76.73
79.45
78.46
74.49
68.43
61.18
53.56
46.11
39.23
33.24
28.60
25.85
25.54
28.00
33.07
40.12
48.12
55.87
62.30
66.67
68.70
68.53
66.58
63.35
59.32
54.85
50.14
45.32
40.48
35.67
30.92
26.18
21.42
16.70
12.24
8.39
5.45
3.52
2.39
1.54
0.45
-1.27
-3.64
-6.43
-9.22
-11.68
-13.71
-15.45
-17.26
-19.58
-22.76
-26.88
-31.79
-37.00
-41.96
-46.23
-49.74
-52.87
-56.37
-61.15
-67.92
-76.87
-87.37
-97.78
-105.60
-108.02
-102.72
-88.78
-67.15
-40.45
-12.25
14.02
35.90
52.29
63.21
69.40
71.75
71.05
67.93
62.89
56.41
48.94
41.01
33.22
26.23
20.75
17.38
16.46
18.01
21.70
26.91
32.88
38.81
43.96
47.77
49.84
50.04
48.44
45.29
40.96
35.89
30.55
25.32
20.49
16.13
12.15
8.31
4.39
0.29
-3.87
-7.76
-11.01
-13.27
-14.51
-14.94
-15.08
-15.54
-16.87
-19.31
-22.74
-26.74
-30.74
-34.31
-37.36
-40.17
-43.32
-47.53
-53.38
-61.01
-69.81
-78.32
-84.32
-85.38
-79.58
-66.30
-46.59
-23.00
1.23
23.20
41.03
54.10
62.68
67.37
68.71
66.98
62.49
55.71
47.41
38.61
30.33
23.45
18.52
15.79
15.22
16.60
19.64
23.97
29.22
34.94
40.60
45.53
49.04
50.54
49.77
46.96
42.71
37.89
33.25
29.25
25.93
23.08
20.41
17.76
15.18
12.84
10.94
9.54
8.60
8.06
7.85
7.96
8.40
9.08
9.83
10.45
10.74
10.62
10.16
9.49
8.75
7.98
7.17
6.24
5.18
4.03
2.91
1.93
1.15
0.57
0.04
-0.52
-1.20
-1.99
-2.80
-3.57
-4.28
-5.01
-5.85
-6.82
-7.80
-8.64
-9.18
-9.40
-9.47
-9.70
-10.37
-11.57
-13.17
-14.86
-16.31
-17.36
-18.11
-18.92
-20.17
-22.17
-24.97
-28.29
-31.70
-34.66
-36.85
-38.26
-39.31
-40.73
-43.22
-47.18
-52.46
-58.43
-64.17
-69.02
-72.77
-75.79
-78.85
-82.82
-88.49
-96.29
-106.05
-116.71
-126.16
-131.40
-129.34
-117.89
-96.91
-68.54
-36.58
-5.30
21.90
43.15
58.18
67.67
72.56
73.75
71.96
67.96
62.57
56.58
50.59
44.89
39.62
34.89
31.06
28.66
28.26
30.19
34.41
40.38
47.23
53.93
59.44
62.96
64.05
62.70
59.37
54.84
49.95
45.34
41.32
37.80
34.50
31.09
27.46
23.73
20.15
17.08
14.79
13.45
12.99
13.19
13.74
14.29
14.67
14.82
14.81
14.80
14.84
14.91
14.87
14.60
14.06
13.33
12.50
11.67
10.85
9.97
8.97
7.87
6.75
5.74
4.90
4.18
3.47
2.63
1.61
0.47
-0.64
-1.59
-2.31
-2.83
-3.23
-3.64
-4.12
-4.69
-5.33
-5.97
-6.57
-7.10
-7.61
-8.20
-8.97
-9.99
-11.22
-12.61
-14.10
-15.74
-17.63
-19.90
-22.55
-25.48
-28.46
-31.20
-33.50
-35.34
-36.92
-38.68
-41.06
-44.37
-48.62
-53.48
-58.41
-62.93
-66.73
-69.89
-72.83
-76.21
-80.80
-87.31
-96.01
-106.40
-116.89
-124.85
-127.17
-121.30
-106.19
-82.92
-54.38
-24.39
3.53
26.98
44.95
57.52
65.27
68.94
69.23
66.87
62.62
57.18
51.08
44.59
37.92
31.28
25.14
20.18
17.18
16.78
19.32
24.63
32.05
40.47
48.62
55.30
59.72
61.58
61.16
59.03
55.84
52.13
48.26
44.43
40.66
36.91
33.12
29.21
25.23
21.37
17.96
15.30
13.52
12.51
11.98
11.61
11.22
10.85
10.64
10.72
11.09
11.55
11.88
11.90
11.62
11.17
10.70
10.32
10.03
9.73
9.30
8.68
7.81
6.69
5.34
3.80
2.18
0.63
-0.76
-1.97
-3.13
-4.40
-5.95
-7.76
-9.67
-11.42
-12.80
-13.79
-14.63
-15.79
-17.73
-20.64
-24.35
-28.35
-32.00
-34.85
-36.89
-38.53
-40.44
-43.22
-47.15
-52.00
-57.23
-62.22
-66.56
-70.23
-73.56
-77.19
-81.89
-88.38
-97.03
-107.56
-118.64
-127.84
-132.09
-128.50
-115.49
-93.46
-64.90
-33.59
-3.45
22.56
42.97
57.61
67.04
72.03
73.27
71.44
67.37
62.00
56.16
50.38
44.83
39.41
34.12
29.27
25.52
23.74
24.63
28.45
34.85
42.90
51.35
58.92
64.57
67.75
68.44
67.01
64.14
60.43
56.37
52.19
47.98
43.75
39.58
35.51
31.60
27.87
24.40
21.32
18.81
17.00
15.93
15.46
15.37
15.45
15.56
15.68
15.85
16.12
16.45
16.73
16.85
16.74
16.40
15.91
15.31
14.63
13.84
12.93
11.85
10.55
9.03
7.32
5.50
3.66
1.90
0.20
-1.48
-3.25
-5.17
-7.15
-9.06
-10.67
-11.85
-12.64
-13.31
-14.22
-15.73
-17.99
-20.87
-24.07
-27.17
-29.86
-32.09
-34.07
-36.22
-38.99
-42.60
-47.01
-51.85
-56.63
-60.97
-64.78
-68.27
-71.89
-76.24
-81.91
-89.27
-98.24
-107.92
-116.47
-121.32
-119.80
-110.09
-92.00
-67.21
-38.74
-10.15
15.60
36.64
52.33
62.82
68.70
70.69
69.56
66.16
61.31
55.68
49.66
43.33
36.74
30.06
23.85
19.03
16.57
17.22
21.14
27.81
36.13
44.73
52.38
58.17
61.72
63.07
62.60
60.79
58.17
55.15
51.98
48.75
45.34
41.58
37.29
32.47
27.36
22.39
18.02
14.64
12.41
11.25
10.92
11.12
11.56
12.08
12.56
12.92
13.11
13.05
12.72
12.15
11.41
10.57
9.68
8.75
7.79
6.75
5.62
4.41
3.11
1.73
0.20
-1.47
-3.26
-5.06
-6.82
-8.53
-10.33
-12.41
-14.92
-17.89
-21.13
-24.39
-27.38
-29.96
-32.20
-34.37
-36.88
-40.05
-44.04
-48.69
-53.58
-58.24
-62.28
-65.61
-68.52
-71.55
-75.38
-80.72
-88.03
-97.33
-107.81
-117.66
-124.14
-124.28
-115.88
-98.41
-73.48
-44.36
-14.88
11.74
33.60
50.15
61.67
68.71
71.77
71.38
68.27
63.42
57.84
52.27
46.92
41.66
36.30
31.02
26.44
23.51
23.05
25.44
30.42
37.10
44.35
51.07
56.44
60.02
61.76
61.82
60.49
58.08
54.88
51.10
46.91
42.46
37.89
33.41
29.17
25.32
21.90
18.96
16.51
14.58
13.24
12.48
12.23
12.28
12.40
12.43
12.39
12.38
12.59
13.12
13.91
