1523020131.00
64.000000
-0.00
-0.00
-0.00
-0.00
-0.00
-0.00
-0.00
-0.00
-0.00
-0.00
0.00
0.01
0.01
-0.00
-0.03
-0.05
-0.05
0.00
0.13
0.36
0.66
1.01
1.37
1.72
2.06
2.40
2.79
3.24
3.80
4.42
5.06
5.66
6.20
6.68
7.15
7.68
8.31
9.14
10.09
11.04
11.88
12.56
13.14
13.76
14.65
15.96
17.91
20.32
22.90
25.38
27.58
29.57
31.68
34.32
37.81
42.54
48.15
54.10
59.83
64.97
69.58
74.14
79.34
85.71
93.76
103.00
112.62
121.73
129.77
136.75
143.30
150.75
157.77
166.64
177.95
191.79
206.97
220.57
228.25
225.36
208.53
176.87
132.76
80.05
23.07
-34.94
-92.44
-149.16
-205.23
-260.37
-313.74
-363.87
-409.83
-450.91
-486.50
-515.74
-537.23
-549.22
-549.96
-538.37
-514.21
-478.67
-433.88
-382.45
-327.02
-269.84
-212.63
-156.66
-102.95
-52.37
-5.90
35.58
71.43
101.35
125.50
144.38
158.69
169.15
176.37
180.75
182.57
182.07
179.51
175.23
169.65
163.18
156.15
148.81
141.30
133.69
126.02
118.33
110.69
103.16
95.80
88.68
81.83
75.25
68.95
62.95
57.25
51.86
46.78
42.03
37.59
33.45
29.61
26.07
22.81
19.83
17.11
14.67
12.48
10.54
8.83
7.35
6.07
4.97
4.05
3.27
2.62
2.09
1.65
1.30
1.01
0.79
0.61
0.47
0.37
0.28
0.22
0.18
0.15
0.12
0.11
0.11
0.12
0.13
0.15
0.18
0.21
0.24
0.28
0.32
0.37
0.41
0.45
0.50
0.55
0.60
0.65
0.70
0.76
0.82
0.88
0.96
1.04
1.13
1.23
1.35
1.48
1.63
1.80
1.98
2.19
2.42
2.68
2.96
3.28
3.62
3.99
4.40
4.85
5.32
5.84
6.39
6.98
7.61
8.28
8.99
9.74
10.53
11.37
12.25
13.17
14.15
15.19
16.29
17.45
18.65
19.88
21.08
22.19
23.13
23.76
23.98
23.66
22.72
21.06
18.68
15.61
11.90
7.73
3.26
-1.29
-5.69
-9.73
-13.20
-15.96
-17.91
-18.99
-19.22
-18.68
-17.46
-15.70
-13.52
-11.07
-8.48
-5.83
-3.21
-0.65
1.77
4.01
6.03
7.85
9.48
10.95
12.28
13.57
14.88
16.17
17.44
18.72
20.05
21.51
23.17
25.12
27.50
30.49
33.95
37.82
42.09
46.75
51.78
57.17
62.91
69.09
75.87
82.91
90.06
97.24
104.41
111.53
118.57
125.55
132.58
139.89
147.02
153.76
159.87
165.08
168.96
170.85
169.76
164.03
156.54
148.03
138.98
129.66
120.24
110.69
100.96
90.99
80.88
71.02
61.24
51.69
42.51
33.71
25.09
16.32
7.08
-2.68
-12.67
-22.80
-32.73
-42.13
-51.01
-59.70
-68.80
-78.89
-90.23
-102.54
-115.52
-128.51
-141.03
-152.90
-164.37
-176.09
-188.87
-203.63
-221.14
-241.84
-265.04
-288.63
-309.21
-322.90
-326.66
-319.35
-302.24
-278.46
-251.77
-225.26
-200.62
-178.25
-157.82
-139.02
-121.89
-106.59
-93.14
-81.20
-70.13
-59.30
-48.41
-37.56
-27.26
-18.11
-10.60
-4.78
-0.40
3.13
6.43
9.95
13.79
17.73
21.32
24.16
26.01
27.00
27.50
27.94
28.64
29.62
30.71
31.65
32.26
32.51
32.50
32.33
32.01
31.47
30.63
29.52
28.24
26.97
25.82
24.81
23.89
23.01
22.21
21.53
21.00
20.58
20.18
19.68
19.04
18.31
17.63
17.07
16.64
16.27
15.83
15.27
14.55
13.71
12.82
11.92
11.02
10.18
9.43
8.80
8.31
7.91
7.55
7.19
6.82
6.49
6.23
6.13
6.20
6.46
6.83
7.30
7.78
8.18
8.42
8.47
8.33
8.09
7.84
7.60
7.31
6.85
6.14
5.22
4.29
3.61
3.37
3.59
4.10
4.64
5.02
5.14
5.06
4.86
4.54
4.12
3.58
3.00
2.50
2.16
2.00
1.91
1.79
1.56
1.27
1.00
0.82
0.69
0.51
0.16
-0.39
-1.07
-1.71
-2.11
-2.14
-1.72
-0.89
0.25
1.50
2.62
3.42
3.76
3.65
3.19
2.54
1.85
1.18
0.53
-0.15
-0.84
-1.50
-1.97
-2.11
-1.88
-1.32
-0.52
0.35
1.13
1.71
2.00
1.95
1.59
1.02
0.43
0.04
-0.01
0.31
0.86
1.44
1.89
2.15
2.22
2.17
2.03
1.76
1.34
0.82
0.28
-0.15
-0.38
-0.44
-0.40
-0.30
-0.16
0.15
0.67
1.41
2.20
2.77
2.84
2.27
1.19
-0.14
-1.35
-2.15
-2.43
-2.31
-1.96
-1.57
-1.24
-0.93
-0.61
-0.27
0.03
0.19
0.19
0.10
0.03
0.12
0.32
0.52
0.56
0.32
-0.18
-0.81
-1.37
-1.72
-1.84
-1.82
-1.81
-1.92
-2.17
-2.50
-2.87
-3.24
-3.62
-4.01
-4.35
-4.53
-4.43
-3.97
-3.23
-2.33
-1.43
-0.63
0.07
0.73
1.34
1.83
2.07
2.00
1.65
1.21
0.93
0.98
1.40
2.11
2.90
3.61
4.11
4.38
4.41
4.22
3.81
3.24
2.53
1.80
1.15
0.64
0.28
0.02
-0.25
-0.59
-1.03
-1.53
-2.00
-2.31
-2.35
-2.12
-1.68
-1.20
-0.86
-0.71
-0.74
-0.78
-0.66
-0.27
0.42
1.31
2.24
3.12
3.87
4.51
5.03
5.45
5.73
5.88
5.91
5.81
5.60
5.25
4.78
4.23
3.64
3.10
2.59
2.12
1.65
1.23
0.88
0.68
0.64
0.68
0.66
0.43
-0.04
-0.68
-1.29
-1.71
-1.81
-1.60
-1.17
-0.62
-0.09
0.36
0.67
0.82
0.70
0.33
-0.27
-0.90
-1.34
-1.40
-1.03
-0.37
0.30
0.75
0.91
0.92
0.98
1.28
1.76
2.25
2.48
2.36
1.98
1.63
1.58
1.86
2.27
2.42
2.00
0.93
-0.60
-2.27
-3.73
-4.78
-5.38
-5.64
-5.69
-5.60
-5.46
-5.31
-5.18
-4.98
-4.55
-3.72
-2.38
-0.65
1.18
2.75
3.80
4.28
4.32
4.14
3.90
3.65
3.32
2.82
2.15
1.40
0.72
0.28
0.13
0.28
0.62
1.08
1.63
2.26
2.92
3.50
3.85
3.81
3.32
2.52
1.65
0.94
0.55
0.39
0.29
0.09
-0.24
-0.58
-0.73
-0.60
-0.24
0.21
0.58
0.82
0.97
1.10
1.28
1.43
1.39
1.06
0.42
-0.45
-1.33
-2.05
-2.47
-2.55
-2.43
-2.29
-2.31
-2.59
-3.12
-3.71
-4.16
-4.30
-4.08
-3.61
-3.09
-2.77
-2.75
-3.04
-3.49
-3.91
-4.10
-3.94
-3.35
-2.35
-1.05
0.39
1.76
2.89
3.65
4.02
4.04
3.81
3.46
3.09
2.82
2.69
2.66
2.65
2.60
2.45
2.20
1.90
1.59
1.32
1.09
0.89
0.70
0.52
0.37
0.28
0.23
0.21
0.16
0.03
-0.25
-0.68
-1.20
-1.69
-1.96
-1.91
-1.53
-1.00
-0.52
-0.32
-0.46
-0.80
-1.14
-1.19
-0.84
-0.10
0.80
1.65
2.18
2.29
1.98
1.32
0.47
-0.40
-1.07
-1.45
-1.44
-1.11
-0.60
-0.04
0.42
0.75
0.96
1.07
1.07
0.94
0.63
0.17
-0.32
-0.70
-0.85
-0.74
-0.44
-0.11
0.12
0.16
0.04
-0.14
-0.32
-0.48
-0.58
-0.66
-0.67
-0.56
-0.32
-0.02
0.19
0.24
0.13
-0.01
-0.07
0.04
0.27
0.41
0.31
-0.08
-0.64
-1.17
-1.45
-1.44
-1.20
-0.89
-0.62
-0.43
-0.26
-0.02
0.34
0.83
1.37
1.94
2.48
2.99
3.44
3.89
4.32
4.70
4.95
4.99
4.76
4.26
3.56
2.82
2.19
1.78
1.59
1.51
1.40
1.17
0.77
0.29
-0.18
-0.55
-0.80
-0.93
-1.02
-1.05
-1.03
-0.94
-0.80
-0.64
-0.54
-0.52
-0.56
-0.65
-0.75
-0.89
-1.08
-1.30
-1.46
-1.47
-1.29
-0.95
-0.63
-0.49
-0.62
-0.97
-1.42
-1.82
-2.09
-2.18
-2.06
-1.67
-0.91
0.24
1.71
3.28
4.65
5.55
5.90
5.81
5.51
5.28
5.22
5.26
5.18
4.75
3.89
2.71
1.46
0.40
-0.27
-0.56
-0.58
-0.50
-0.45
-0.45
-0.47
-0.50
-0.55
-0.66
-0.89
-1.27
-1.74
-2.20
-2.54
-2.72
-2.84
-3.05
-3.49
-4.18
-4.96
-5.53
-5.65
-5.23
-4.39
-3.37
-2.41
-1.67
-1.13
-0.73
-0.37
0.03
0.49
1.07
1.77
2.54
3.31
3.95
4.35
4.53
4.56
4.58
4.66
4.79
4.83
4.69
4.30
3.68
2.92
2.13
1.36
0.67
0.07
-0.47
-1.00
-1.59
-2.23
-2.83
-3.27
-3.42
-3.26
-2.93
-2.66
-2.74
-3.37
-4.57
-6.20
-8.05
-9.83
-11.37
-12.61
-13.74
-15.13
-17.19
-20.24
-24.21
-28.64
-32.85
-36.24
-38.67
-40.60
-42.87
-46.34
-51.38
-57.72
-64.65
-71.30
-77.19
-82.45
-87.73
-94.10
-102.78
-115.17
-132.62
-155.97
-184.89
-217.42
-250.08
-278.85
-300.58
-314.24
-321.11
-324.01
-325.76
-327.93
-330.40
-331.88
-330.92
-326.69
-319.16
-308.72
-295.69
-280.10
-261.91
-241.48
-219.70
-197.94
-177.65
-159.79
-144.51
-131.16
-118.63
-105.84
-92.23
-77.87
-63.37
-49.47
-36.70
-25.12
-14.40
-4.01
6.48
17.15
27.81
38.11
47.86
57.12
66.28
75.84
86.10
96.99
108.06
118.74
128.66
137.91
147.07
156.98
168.37
181.50
196.03
211.26
226.41
240.98
255.04
269.06
283.87
300.47
319.84
342.79
369.28
397.83
425.28
447.16
458.96
457.82
443.53
418.76
387.88
355.37
324.38
296.28
271.11
248.43
228.03
209.92
194.09
180.11
167.10
154.03
140.27
125.82
111.30
97.71
85.94
76.35
68.69
62.22
56.03
49.48
42.41
35.19
28.44
22.76
18.40
15.20
12.71
10.42
8.01
5.43
2.86
0.60
-1.14
-2.34
-3.15
-3.85
-4.68
-5.80
-7.24
-8.88
-10.54
-12.06
-13.34
-14.37
-15.20
-15.87
-16.44
-16.87
-17.13
-17.18
-16.96
-16.45
-15.63
-14.48
-13.02
-11.28
-9.35
-7.43
-5.74
-4.51
-3.86
-3.74
-3.99
-4.40
-4.78
-5.04
-5.23
-5.42
-5.68
-6.01
-6.35
-6.62
-6.80
-6.94
-7.16
-7.54
-8.09
-8.73
-9.34
-9.81
-10.12
-10.31
-10.49
-10.74
-11.11
-11.55
-12.00
-12.37
-12.58
-12.62
-12.52
-12.32
-12.13
-12.01
-11.98
-11.98
-11.94
-11.77
-11.46
-10.99
-10.40
-9.71
-8.96
-8.16
-7.41
-6.80
-6.46
-6.44
-6.68
-7.04
-7.31
-7.30
-6.91
-6.20
-5.33
-4.56
-4.13
-4.18
-4.74
-5.69
-6.88
-8.11
-9.30
-10.42
-11.50
-12.59
-13.70
-14.79
-15.75
-16.47
-16.84
-16.85
-16.51
-15.88
-15.00
-13.88
-12.48
-10.83
-9.02
-7.22
-5.64
-4.46
-3.71
-3.26
-2.91
-2.50
-1.97
-1.39
-0.90
-0.67
-0.80
-1.29
-2.15
-3.27
-4.51
-5.71
-6.69
-7.36
-7.67
-7.72
-7.62
-7.49
-7.40
-7.36
-7.44
-7.74
-8.33
-9.19
-10.18
-10.97
-11.28
-10.99
-10.22
-9.30
-8.57
-8.23
-8.25
-8.43
-8.53
-8.37
-7.87
-7.04
-5.94
-4.64
-3.22
-1.79
-0.49
0.60
1.38
1.79
1.74
1.15
-0.02
-1.70
-3.66
-5.59
-7.11
-7.98
-8.11
-7.59
-6.65
-5.47
-4.15
-2.72
-1.17
0.45
1.99
3.23
3.91
3.85
3.03
1.57
-0.25
-2.14
-3.89
-5.38
-6.65
-7.82
-9.02
-10.28
-11.53
-12.58
-13.22
-13.28
-12.74
-11.68
-10.25
-8.65
-7.07
-5.67
-4.56
-3.77
-3.30
-3.09
-3.07
-3.18
-3.41
-3.73
-4.07
-4.37
-4.53
-4.52
-4.36
-4.12
-3.83
-3.50
-3.08
-2.55
-1.93
-1.31
-0.80
-0.47
-0.38
-0.51
-0.84
-1.34
-1.94
-2.61
-3.24
-3.79
-4.28
-4.83
-5.55
-6.49
-7.59
-8.67
-9.48
-9.86
-9.77
-9.32
-8.70
-8.12
-7.72
-7.51
-7.38
-7.13
-6.52
-5.42
-3.81
-1.92
-0.09
1.32
2.04
2.02
1.38
0.37
-0.77
-1.84
-2.71
-3.30
-3.55
-3.45
-3.02
-2.37
-1.63
-0.91
-0.29
0.21
0.55
0.71
0.67
0.43
0.05
-0.35
-0.66
-0.81
-0.82
-0.81
-0.91
-1.22
-1.80
-2.59
-3.54
-4.54
-5.51
-6.42
-7.25
-7.99
-8.68
-9.34
-9.96
-10.54
-11.01
-11.27
-11.22
-10.73
-9.74
-8.32
-6.63
-4.95
-3.53
-2.58
-2.16
-2.20
-2.56
-3.09
-3.65
-4.13
-4.46
-4.57
-4.47
-4.13
-3.62
-2.97
-2.26
-1.55
-0.90
-0.30
0.24
0.76
1.19
1.46
1.51
1.28
0.76
0.03
-0.84
-1.73
-2.63
-3.49
-4.29
-5.01
-5.61
-6.08
-6.38
-6.50
-6.46
-6.30
-6.09
-5.90
-5.73
-5.57
-5.34
-4.99
-4.60
-4.22
-4.01
-3.98
-4.06
-4.06
-3.81
-3.25
-2.44
-1.56
-0.78
-0.16
0.30
0.65
0.93
1.13
1.17
1.00
0.60
0.06
-0.54
-1.04
-1.35
-1.43
-1.33
-1.13
-0.94
-0.85
-0.88
-1.02
-1.23
-1.41
-1.57
-1.73
-1.94
-2.29
-2.79
-3.40
-4.08
-4.79
-5.58
-6.48
-7.56
-8.76
-9.91
-10.76
-11.08
-10.78
-9.98
-8.91
-7.85
-6.97
-6.28
-5.67
-5.00
-4.21
-3.38
-2.67
-2.22
-2.12
-2.30
-2.56
-2.66
-2.44
-1.86
-1.06
-0.23
0.46
0.93
1.19
1.32
1.35
1.29
1.14
0.91
0.67
0.51
0.42
0.37
0.22
-0.17
-0.87
-1.79
-2.78
-3.64
-4.29
-4.79
-5.32
-6.05
-7.05
-8.25
-9.46
-10.49
-11.23
-11.68
-11.85
-11.76
-11.33
-10.48
-9.16
-7.46
-5.57
-3.68
-1.93
-0.43
0.79
1.74
2.40
2.85
3.14
3.40
3.68
3.98
4.23
4.35
4.27
3.95
3.43
2.75
1.95
1.09
0.20
-0.67
-1.53
-2.38
-3.26
-4.16
-5.07
-5.94
-6.76
-7.54
-8.36
-9.31
-10.46
-11.79
-13.25
-14.72
-16.05
-17.09
-17.65
-17.53
-16.61
-14.85
-12.37
-9.46
-6.44
-3.62
-1.18
0.84
2.46
3.70
4.59
5.14
5.35
5.28
5.03
4.65
4.14
3.53
2.80
1.98
1.14
0.37
-0.30
-0.85
-1.32
-1.76
-2.25
-2.78
-3.38
-4.06
-4.83
-5.69
-6.67
-7.82
-9.19
-10.88
-12.92
-15.30
-17.94
-20.56
-22.79
-24.11
-24.06
-22.34
-19.03
-14.53
-9.45
-4.47
-0.09
3.46
6.16
8.18
9.70
10.84
11.66
12.22
12.57
12.77
12.89
12.95
12.90
12.69
12.24
11.53
10.61
9.59
8.58
7.62
6.59
5.28
3.43
0.87
-2.35
-5.97
-9.61
-12.89
-15.62
-17.86
-19.89
-22.10
-24.85
-28.39
-32.73
-37.63
-42.49
-46.45
-48.48
-47.65
-43.47
-36.11
-26.44
-15.69
-5.15
4.32
12.31
18.85
24.12
28.24
31.21
33.01
33.76
33.74
33.35
32.92
32.59
32.30
31.88
31.20
30.25
29.18
28.19
27.47
27.09
27.01
27.16
27.37
27.53
27.45
26.92
25.84
24.19
22.13
19.92
17.83
15.94
14.14
12.20
9.93
7.30
4.53
1.93
-0.26
-1.98
-3.46
-4.97
-6.79
-8.99
-11.46
-13.96
-16.23
-18.09
-19.52
-20.66
-21.80
-23.36
-25.72
-29.14
-33.58
-38.56
-43.17
-46.18
-46.45
-43.25
-36.59
-27.27
-16.58
-5.96
3.46
11.06
16.74
20.72
23.33
24.85
25.52
25.56
25.25
24.87
24.67
24.77
25.12
25.57
25.88
25.89
25.48
24.69
23.64
22.50
21.44
20.54
19.76
19.06
18.30
17.43
16.41
15.36
14.44
13.80
13.47
13.28
12.99
12.27
10.98
9.18
7.19
5.36
3.96
3.02
2.28
1.42
0.16
-1.60
-3.73
-5.99
-8.16
-10.13
-11.95
-13.73
-15.57
-17.56
-19.71
-22.03
-24.51
-27.04
-29.34
-30.79
-30.68
-28.32
-23.55
-16.76
-8.92
-1.19
5.47
10.54
14.08
16.38
17.82
18.63
18.93
18.83
18.47
18.13
18.03
18.26
18.76
19.29
19.64
19.61
19.20
18.46
17.57
16.70
15.97
15.44
15.03
14.62
14.07
13.29
12.27
11.17
10.14
9.33
8.79
8.42
8.05
7.53
6.77
5.82
4.79
3.79
2.85
1.95
1.04
0.08
-1.00
-2.24
-3.64
-5.19
-6.77
-8.23
-9.40
-10.19
-10.64
-10.89
-11.18
-11.74
-12.71
-14.08
-15.69
-17.20
-18.16
-18.12
-16.80
-14.21
-10.64
-6.63
-2.72
0.73
3.55
5.75
7.42
8.58
9.26
9.48
9.38
9.12
8.92
8.90
9.08
9.38
9.70
9.94
10.00
9.79
9.22
8.29
7.04
5.67
4.43
3.47
2.87
2.56
2.42
2.38
2.37
2.42
2.52
2.64
2.69
2.59
2.32
1.93
1.56
1.34
1.36
1.54
1.76
1.77
1.44
0.72
-0.26
-1.27
-2.11
-2.68
-3.08
-3.52
-4.26
-5.40
-6.91
-8.63
-10.29
-11.69
-12.70
-13.24
-13.28
-12.76
-11.59
-9.77
-7.39
-4.70
-2.03
0.31
2.12
3.34
4.04
4.35
4.40
4.27
4.05
3.77
3.50
3.25
3.02
2.83
2.69
2.61
2.60
2.63
2.64
2.60
2.50
2.38
2.29
2.25
2.23
2.18
2.06
1.88
1.68
1.54
1.50
1.61
1.84
2.12
2.34
2.40
2.22
1.76
1.08
0.24
-0.68
-1.61
-2.56
-3.54
-4.52
-5.47
-6.31
-7.01
-7.64
-8.33
-9.22
-10.39
-11.75
-13.07
-14.06
-14.50
-14.29
-13.52
-12.34
-10.91
-9.34
-7.68
-5.93
-4.14
-2.34
-0.64
0.86
2.08
2.99
3.60
4.01
4.30
4.60
4.98
5.43
5.87
6.16
6.18
5.91
5.46
4.98
4.64
4.54
4.64
4.78
4.80
4.58
4.12
3.49
2.75
1.94
1.05
0.10
-0.85
-1.69
-2.35
-2.83
-3.25
-3.74
-4.38
-5.06
-5.59
-5.74
-5.43
-4.75
-3.94
-3.28
-2.91
-2.83
-2.97
-3.23
-3.63
-4.20
-5.00
-5.99
-7.03
-7.96
-8.61
-8.87
-8.75
-8.27
-7.50
-6.53
-5.41
-4.24
-3.06
-1.93
-0.89
0.02
0.73
1.20
1.42
1.44
1.38
1.33
1.36
1.50
1.70
1.95
2.20
2.45
2.69
2.87
2.96
2.89
2.70
2.45
2.17
1.83
1.38
0.80
0.13
-0.52
-1.02
-1.28
-1.30
-1.17
-0.96
-0.73
-0.49
-0.25
-0.09
-0.15
-0.54
-1.31
-2.37
-3.53
-4.60
-5.49
-6.21
-6.79
-7.26
-7.55
-7.53
-7.07
-6.09
-4.68
-2.98
-1.25
0.35
1.66
2.59
3.17
3.45
3.53
3.51
3.47
3.42
3.32
3.11
2.73
2.22
1.69
1.26
1.03
1.01
1.13
1.23
1.17
0.89
0.38
-0.30
-1.12
-2.10
-3.24
-4.56
-5.92
-7.13
-7.98
-8.35
-8.28
-7.97
-7.60
-7.29
-7.07
-6.83
-6.51
-6.10
-5.72
-5.50
-5.53
-5.77
-6.06
-6.20
-6.04
-5.53
-4.72
-3.66
-2.43
-1.10
0.24
1.51
2.54
3.24
3.55
3.52
3.26
2.96
2.73
2.63
2.66
2.74
2.80
2.80
2.71
2.53
2.28
1.99
1.67
1.38
1.13
0.94
0.80
0.67
0.51
0.24
-0.14
-0.66
-1.24
-1.80
-2.20
-2.37
-2.28
-2.02
-1.73
-1.56
-1.56
-1.69
-1.87
-1.98
-2.04
-2.10
-2.23
-2.43
-2.60
-2.66
-2.48
-2.11
-1.65
-1.24
-0.95
-0.78
-0.65
-0.48
-0.27
-0.05
0.09
0.09
-0.00
-0.13
-0.20
-0.19
-0.12
-0.07
-0.11
-0.27
-0.48
-0.63
-0.60
-0.35
0.05
0.46
0.75
0.85
0.82
0.76
0.76
0.83
0.90
0.82
0.50
-0.07
-0.82
-1.59
-2.27
-2.80
-3.23
-3.63
-4.09
-4.65
-5.28
-5.94
-6.60
-7.26
-7.92
-8.58
-9.12
-9.37
-9.19
-8.53
-7.49
-6.24
-4.99
-3.84
-2.79
-1.79
-0.81
0.17
1.10
1.90
2.49
2.82
2.87
2.68
2.28
1.83
1.47
1.32
1.43
1.74
2.10
2.37
2.43
2.25
1.88
1.42
0.95
0.53
0.11
-0.37
-0.93
-1.51
-2.00
-2.30
-2.31
-2.08
-1.73
-1.43
-1.25
-1.21
-1.24
-1.27
-1.28
-1.30
-1.40
-1.60
-1.88
-2.16
-2.36
-2.47
-2.47
-2.36
-2.10
-1.69
-1.12
-0.49
0.04
0.32
0.28
0.01
-0.30
-0.46
-0.37
-0.02
0.48
0.98
1.40
1.71
1.91
2.00
2.00
1.90
1.71
1.47
1.19
0.92
0.69
0.52
0.41
0.31
0.14
-0.13
-0.47
-0.82
-1.06
-1.20
-1.28
-1.42
-1.75
-2.34
-3.13
-4.02
-4.94
-5.77
-6.49
-7.05
-7.35
-7.32
-6.89
-6.07
-4.95
-3.66
-2.30
-0.95
0.36
1.57
2.63
3.46
4.04
4.37
4.49
4.41
4.12
3.58
2.78
1.81
0.88
0.18
-0.14
-0.11
0.15
0.44
0.61
0.60
0.44
0.17
-0.17
-0.57
-1.01
-1.50
-2.04
-2.61
-3.15
-3.61
-3.92
-4.04
-4.04
-4.05
-4.21
-4.60
-5.17
-5.75
-6.16
-6.41
-6.62
-7.02
-7.71
-8.57
-9.27
-9.47
-9.06
-8.19
-7.27
-6.61
-6.27
-6.04
-5.56
-4.59
-3.16
-1.54
-0.10
0.94
1.55
1.92
2.35
3.03
4.03
5.25
6.48
7.55
8.32
8.76
8.93
8.88
8.63
8.15
7.45
6.57
5.60
4.69
3.90
3.24
2.62
1.96
1.18
0.32
-0.54
-1.36
-2.10
-2.73
-3.22
-3.53
-3.63
-3.53
-3.39
-3.45
-3.94
-4.95
-6.41
-8.05
-9.57
-10.71
-11.37
-11.60
-11.46
-11.00
-10.15
-8.86
-7.10
-4.96
-2.61
-0.28
1.87
3.73
5.24
6.37
7.09
7.42
7.40
7.13
6.74
6.31
5.91
5.55
5.22
4.93
4.72
4.66
4.73
4.90
5.06
5.18
5.22
5.20
5.15
5.06
4.85
4.46
3.81
2.90
1.79
0.58
-0.62
-1.69
-2.61
-3.35
-3.96
-4.53
-5.18
-5.98
-6.96
-8.05
-9.11
-10.01
-10.65
-10.98
-11.00
-10.70
-10.11
-9.22
-8.07
-6.71
-5.29
-3.94
-2.77
-1.83
-1.01
-0.15
0.96
2.43
4.23
6.13
7.88
9.27
10.24
10.89
11.43
12.02
12.68
13.33
13.75
13.74
13.21
12.17
10.78
9.26
7.81
6.58
5.56
4.74
4.05
3.37
2.67
1.93
1.15
0.38
-0.39
-1.15
-1.90
-2.65
-3.38
-4.08
-4.73
-5.40
-6.18
-7.13
-8.26
-9.46
-10.52
-11.23
-11.43
-11.08
-10.27
-9.08
-7.58
-5.84
-3.91
-1.90
-0.01
1.62
2.87
3.77
4.44
5.01
5.63
6.34
7.08
7.71
8.08
8.11
7.81
7.28
6.71
6.22
5.87
5.62
5.36
5.02
4.60
4.14
3.75
3.48
3.31
3.17
2.98
2.65
2.15
1.47
0.58
-0.46
-1.57
-2.59
-3.38
-3.80
-3.86
-3.73
-3.65
-3.89
-4.60
-5.71
-7.06
-8.39
-9.48
-10.21
-10.53
-10.43
-9.92
-8.95
-7.51
-5.63
-3.42
-1.08
1.15
3.05
4.53
5.60
6.35
6.90
7.31
7.60
7.74
7.74
7.65
7.51
7.36
7.20
6.99
6.73
6.42
6.11
5.87
5.67
5.47
5.15
4.62
3.88
2.98
2.07
1.32
0.86
0.74
0.94
1.40
2.08
2.95
4.01
5.27
6.64
8.02
9.30
10.43
11.41
12.27
13.01
13.52
13.62
13.13
12.00
10.32
8.34
6.38
4.70
3.47
2.71
2.32
2.10
1.78
1.05
-0.33
-2.50
-5.36
-8.58
-11.63
-13.93
-15.03
-14.76
-13.32
-11.19
-8.95
-7.09
-5.92
-5.43
-5.53
-6.06
-6.94
-8.10
-9.43
-10.70
-11.61
-11.87
-11.36
-10.19
-8.65
-7.12
-5.78
-4.70
-3.75
-2.80
-1.82
-0.96
-0.40
-0.28
-0.58
-1.09
-1.57
-1.82
-1.80
-1.58
-1.32
-1.19
-1.31
-1.67
-2.19
-2.77
-3.26
-3.58
-3.70
-3.63
-3.36
-2.93
-2.33
-1.62
-0.91
-0.32
0.07
0.23
0.29
0.41
0.72
1.25
1.97
2.77
3.54
4.21
4.72
4.99
4.98
4.63
3.99
3.17
2.37
1.79
1.56
1.67
2.00
2.34
2.53
2.50
2.23
1.77
1.12
0.30
-0.67
-1.71
-2.64
-3.30
-3.61
-3.61
-3.50
-3.48
-3.71
-4.22
-4.94
-5.69
-6.37
-6.88
-7.16
-7.16
-6.88
-6.30
-5.41
-4.25
-2.82
-1.19
0.52
2.15
3.51
4.46
4.97
5.10
4.99
4.77
4.51
4.26
4.04
3.90
3.87
3.96
4.12
4.20
4.09
3.71
3.10
2.33
1.52
0.75
0.09
-0.42
-0.77
-0.95
-1.01
-1.04
-1.17
-1.48
-1.97
-2.58
-3.19
-3.70
-4.13
-4.60
-5.22
-6.03
-6.96
-7.83
-8.42
-8.59
-8.25
-7.48
-6.36
-5.03
-3.56
-2.02
-0.47
1.02
2.29
3.20
3.62
3.55
3.13
2.61
2.23
2.15
2.40
2.83
3.23
3.46
3.48
3.39
3.30
3.31
3.44
3.66
3.88
4.02
4.01
3.79
3.33
2.61
1.67
0.56
-0.63
-1.84
-3.00
-4.08
-5.10
-6.06
-7.03
-8.09
-9.29
-10.64
-12.07
-13.43
-14.49
-15.08
-15.01
-14.24
-12.74
-10.55
-7.77
-4.62
-1.38
1.61
3.99
5.59
6.42
6.64
6.50
6.26
6.04
5.94
5.98
6.18
6.54
7.03
7.55
7.94
8.06
7.81
7.23
6.45
5.68
5.05
4.61
4.18
3.53
2.42
0.79
-1.21
-3.27
-5.03
-6.27
-6.99
-7.43
-7.94
-8.80
-10.14
-11.84
-13.63
-15.13
-16.02
-16.05
-15.15
-13.36
-10.86
-7.90
-4.77
-1.73
1.01
3.33
5.18
6.53
7.41
7.87
7.98
7.86
7.65
7.43
7.24
7.01
6.63
6.07
5.39
4.69
4.12
3.73
3.41
2.95
2.16
0.93
-0.69
-2.51
-4.32
-5.99
-7.47
-8.84
-10.20
-11.61
-13.11
-14.74
-16.52
-18.45
-20.41
-22.07
-22.90
-22.29
-19.81
-15.41
-9.54
-3.05
3.10
8.13
11.68
13.79
14.86
15.32
15.51
15.60
15.64
15.64
15.61
15.52
15.28
14.77
13.88
12.67
11.29
9.95
8.77
7.71
6.53
4.89
2.55
-0.54
-4.18
-8.02
-11.59
-14.63
-17.05
-19.10
-21.24
-23.99
-27.70
-32.31
-37.24
-41.41
-43.58
-42.66
-38.18
-30.44
-20.48
-9.71
0.47
9.01
15.42
19.69
22.10
23.08
23.04
22.39
21.45
20.53
19.81
19.34
19.05
18.72
18.12
17.02
15.31
13.04
10.45
7.87
5.63
3.90
2.66
1.65
0.50
-1.07
-3.14
-5.50
-7.80
-9.72
-11.14
-12.23
-13.37
-15.00
-17.40
-20.59
-24.24
-27.76
-30.36
-31.20
-29.58
-25.15
-18.17
-9.37
0.04
8.86
16.14
21.46
24.90
26.85
27.79
28.08
27.93
27.46
26.77
26.01
25.26
24.53
23.68
22.48
20.74
18.45
15.76
12.99
10.46
8.32
6.51
4.78
2.82
0.47
-2.31
-5.34
-8.41
-11.34
-14.10
-16.77
-19.56
-22.68
-26.31
-30.44
-34.79
-38.74
-41.37
-41.66
-38.76
-32.42
-23.12
-12.04
-0.64
9.66
17.95
23.86
27.52
29.36
29.82
29.35
28.34
27.07
25.71
24.36
22.99
21.50
19.82
17.92
15.81
13.63
11.45
9.36
7.36
5.40
3.33
1.04
-1.53
-4.38
-7.38
-10.38
-13.25
-15.96
-18.62
-21.46
-24.75
-28.75
-33.43
-38.38
-42.66
-45.02
-44.23
-39.57
-31.15
-19.98
-7.65
4.19
14.29
22.04
27.36
30.55
31.95
31.94
30.92
29.27
27.43
25.74
24.33
23.17
22.07
20.87
19.46
17.84
16.05
14.10
11.95
9.57
6.93
4.04
0.97
-2.20
-5.34
-8.36
-11.20
-13.86
-16.51
-19.43
-23.01
-27.47
-32.64
-37.74
-41.44
-42.24
-38.95
-31.21
-19.73
-6.08
7.77
19.98
29.41
35.67
38.99
40.00
39.41
37.87
35.88
33.84
32.03
30.58
29.51
28.63
27.64
26.22
24.23
21.77
19.22
17.05
15.53
14.55
13.65
12.14
9.52
5.66
0.94
-3.95
-8.36
-11.91
-14.63
-16.91
-19.29
-22.37
-26.51
-31.81
-37.87
-43.77
-48.12
-49.38
-46.41
-38.93
-27.70
-14.31
-0.69
11.47
21.17
28.10
32.53
34.95
35.84
35.66
34.80
33.62
32.47
31.55
30.92
30.45
29.89
28.95
27.49
25.56
23.43
21.46
19.97
18.98
18.26
17.38
15.96
13.85
11.24
8.53
6.14
4.29
2.84
1.44
-0.42
-3.08
-6.59
-10.72
-15.04
-19.09
-22.57
-25.44
-27.94
-30.53
-33.69
-37.79
-42.87
-48.46
-53.53
-56.59
-56.17
-51.19
-41.53
-28.15
-12.90
2.05
14.86
24.48
30.79
34.31
35.81
35.97
35.26
33.99
32.48
31.10
30.22
30.02
30.42
31.07
31.49
31.31
30.38
28.88
27.20
25.76
24.83
24.37
24.08
23.54
22.41
20.60
18.34
16.02
14.00
12.43
11.15
9.80
8.03
5.61
2.60
-0.72
-3.96
-6.80
-9.08
-10.84
-12.29
-13.68
-15.23
-16.98
-18.84
-20.65
-22.23
-23.44
-24.33
-25.01
-25.78
-27.00
-29.10
-32.38
-36.80
-41.73
-45.96
-47.91
-46.19
-40.15
-30.28
-18.11
-5.70
5.13
13.34
18.84
22.23
24.30
25.60
26.33
26.51
26.17
25.53
24.89
24.50
24.39
24.33
24.01
23.24
22.01
20.58
19.31
18.47
18.14
18.15
18.20
17.97
17.27
16.10
14.62
13.07
11.62
10.35
9.21
8.03
6.63
4.96
3.07
1.17
-0.53
-1.89
-2.91
-3.72
-4.52
-5.50
-6.72
-8.11
-9.56
-10.97
-12.33
-13.69
-15.17
-16.88
-18.89
-21.25
-23.92
-26.71
-29.18
-30.66
-30.43
-27.92
-23.03
-16.22
-8.43
-0.80
5.70
10.57
13.79
15.67
16.63
16.92
16.70
16.01
14.96
13.79
12.78
12.12
11.85
11.79
11.68
11.26
10.49
9.50
8.53
7.81
7.40
7.21
7.05
6.73
6.13
5.28
4.26
3.13
1.94
0.73
-0.44
-1.47
-2.25
-2.75
-3.05
-3.33
-3.83
-4.72
-6.08
-7.80
-9.68
-11.46
-12.92
-14.01
-14.77
-15.41
-16.21
-17.39
-19.10
-21.29
-23.73
-25.96
-27.43
-27.58
-25.92
-22.28
-16.82
-10.14
-3.12
3.29
8.40
11.86
13.79
14.55
14.62
14.37
13.98
13.48
12.84
12.11
11.39
10.80
10.44
10.29
10.20
9.98
9.49
8.67
7.63
6.56
5.62
4.88
4.23
3.47
2.41
0.98
-0.76
-2.56
-4.11
-5.21
-5.77
-5.95
-6.00
-6.17
-6.59
-7.25
-8.01
-8.73
-9.30
-9.74
-10.17
-10.76
-11.65
-12.95
-14.63
-16.58
-18.54
-20.15
-20.95
-20.48
-18.44
-14.82
-9.95
-4.45
0.96
5.61
9.08
11.32
12.53
13.00
13.05
12.83
12.43
11.84
11.09
10.27
9.45
8.69
7.95
7.17
6.29
5.29
4.25
3.31
2.60
2.17
1.97
1.87
1.74
1.53
1.26
0.99
0.77
0.64
0.49
0.22
-0.25
-1.00
-1.99
-3.09
-4.15
-4.99
-5.53
-5.76
-5.78
-5.77
-5.94
-6.40
-7.16
-8.08
-8.95
-9.55
-9.71
-9.29
-8.28
-6.73
-4.74
-2.49
-0.19
1.90
3.52
4.50
4.80
4.54
3.93
3.24
2.68
2.33
2.16
2.03
1.82
1.48
1.01
0.52
0.14
-0.00
0.13
0.49
0.98
1.41
1.63
1.57
1.22
0.68
0.08
-0.51
-1.01
-1.46
-1.91
-2.44
-3.03
-3.70
-4.38
-5.03
-5.70
-6.41
-7.21
-8.10
-9.08
-10.13
-11.26
-12.50
-13.79
-14.91
-15.50
-15.12
-13.48
-10.64
-6.97
-3.15
0.17
2.53
3.85
4.32
4.30
4.10
3.93
3.89
3.98
4.22
4.61
5.11
5.66
6.10
6.36
6.38
6.17
5.73
5.09
4.26
3.27
2.20
1.14
0.17
-0.67
-1.39
-2.06
-2.72
-3.36
-4.00
-4.64
-5.31
-6.05
-6.85
-7.58
-8.11
-8.32
-8.24
-8.09
-8.21
-8.92
-10.36
-12.36
-14.46
-15.99
-16.37
-15.28
-12.78
-9.33
-5.58
-2.19
0.41
2.13
3.14
3.77
4.29
4.84
5.43
5.98
6.39
6.65
6.77
6.81
6.82
6.84
6.87
6.92
6.91
6.76
6.37
5.69
4.76
3.66
2.51
1.38
0.27
-0.86
-2.09
-3.45
-4.93
-6.43
-7.86
-9.11
-10.12
-10.88
-11.41
-11.81
-12.22
-12.83
-13.82
-15.22
-16.84
-18.21
-18.74
-17.85
-15.27
-11.11
-5.96
-0.61
4.13
7.71
9.93
10.94
11.12
10.86
10.47
10.12
9.82
9.51
9.14
8.68
8.17
7.68
7.24
6.84
6.41
5.84
5.11
4.26
3.42
2.72
2.18
1.70
1.09
0.19
-1.08
-2.65
-4.37
-6.06
-7.61
-8.96
-10.13
-11.19
-12.28
-13.56
-15.22
-17.42
-20.15
-23.13
-25.81
-27.50
-27.49
-25.33
-20.98
-14.90
-7.89
-0.90
5.27
10.10
13.42
15.34
16.11
15.98
15.17
13.90
12.39
10.93
9.75
9.00
8.68
8.61
8.63
8.52
8.19
7.62
6.85
5.98
5.10
4.29
3.51
2.67
1.58
0.07
-1.94
-4.35
-6.88
-9.19
-11.00
-12.23
-12.99
-13.58
-14.39
-15.79
-18.04
-21.25
-25.22
-29.43
-33.01
-34.93
-34.26
-30.54
-23.97
-15.46
-6.25
2.36
9.49
14.77
18.34
20.56
21.84
22.45
22.53
22.18
21.52
20.72
19.98
19.47
19.21
19.13
19.03
18.62
17.72
16.25
14.36
12.31
10.40
8.76
7.31
5.78
3.84
1.33
-1.72
-4.98
-8.09
-10.73
-12.81
-14.47
-15.98
-17.71
-19.92
-22.81
-26.43
-30.70
-35.30
-39.63
-42.78
-43.65
-41.32
-35.44
-26.41
-15.43
-4.12
6.03
14.06
19.78
23.57
26.06
27.75
28.87
29.44
29.45
29.01
28.41
27.92
27.69
27.61
27.37
26.62
25.15
23.07
20.67
18.36
16.39
14.76
13.28
11.67
9.70
7.29
4.48
1.41
-1.80
-4.99
-8.00
-10.64
-12.84
-14.60
-16.13
-17.70
-19.62
-22.16
-25.42
-29.26
-33.27
-36.69
-38.51
-37.68
-33.48
-25.96
-15.96
-4.98
5.40
13.94
20.19
24.30
26.78
28.08
28.41
27.88
26.60
24.89
23.20
21.95
21.35
21.33
21.53
21.56
21.07
19.88
18.05
15.77
13.34
11.04
9.04
7.30
5.65
3.79
1.43
-1.54
-5.08
-8.94
-12.84
-16.50
-19.78
-22.65
-25.20
-27.70
-30.48
-33.93
-38.27
-43.35
-48.38
-52.05
-52.79
-49.38
-41.47
-29.79
-15.93
-1.85
10.80
21.01
28.49
33.41
36.13
36.98
36.31
34.46
31.95
29.31
27.06
25.44
24.42
23.71
22.81
21.28
18.87
15.68
12.10
8.71
6.01
4.20
3.10
2.20
0.91
-1.23
-4.42
-8.48
-13.04
-17.61
-21.74
-25.17
-27.87
-30.07
-32.23
-34.91
-38.66
-43.73
-49.79
-55.78
-59.98
-60.52
-55.92
-45.83
-31.21
-14.13
2.91
17.77
29.19
36.96
41.56
43.73
44.05
42.89
40.53
37.36
33.94
30.93
28.81
27.74
27.44
27.32
26.75
25.29
22.86
19.72
16.38
13.38
11.03
9.33
7.92
6.22
3.70
0.05
-4.63
-9.85
-14.97
-19.43
-23.03
-25.93
-28.55
-31.41
-35.01
-39.71
-45.63
-52.47
-59.32
-64.60
-66.36
-62.93
-53.61
-39.12
-21.55
-3.63
12.17
24.40
32.87
38.23
41.41
43.01
43.23
42.07
39.63
36.37
32.97
30.11
28.21
27.21
26.72
26.22
25.28
23.79
21.90
19.93
18.17
16.74
15.49
14.11
12.21
9.45
5.67
0.95
-4.37
-9.82
-14.90
-19.24
-22.75
-25.63
-28.34
-31.51
-35.80
-41.69
-49.29
-57.99
-66.36
-72.30
-73.57
-68.58
-57.12
-40.51
-21.26
-2.21
14.38
27.39
36.80
43.23
47.35
49.63
50.24
49.33
47.24
44.53
41.78
39.40
37.55
36.15
35.05
34.18
33.55
33.16
32.87
32.35
31.21
29.13
26.08
22.34
18.37
14.59
11.10
7.74
4.18
0.17
-4.31
-9.00
-13.56
-17.72
-21.47
-25.01
-28.69
-32.94
-38.16
-44.65
-52.46
-61.01
-68.97
-74.26
-74.59
-68.32
-55.25
-36.84
-15.88
4.54
21.99
35.35
44.72
50.92
54.84
57.00
57.61
56.79
54.75
51.98
48.99
46.17
43.70
41.61
39.80
38.27
37.04
36.13
35.52
35.08
34.57
33.80
32.56
30.73
28.25
25.11
21.40
17.30
13.08
9.06
5.47
2.43
-0.20
-2.67
-5.31
-8.38
-12.01
-16.15
-20.59
-24.99
-29.04
-32.45
-35.12
-37.19
-39.05
-41.29
-44.58
-49.47
-56.08
-63.80
-71.09
-75.68
-75.19
-67.95
-53.77
-34.23
-12.24
8.87
26.47
39.31
47.53
52.12
54.26
54.78
54.08
52.35
49.90
47.21
44.79
42.94
41.64
40.57
39.29
37.55
35.40
33.11
31.05
29.45
28.29
27.37
26.34
24.95
23.06
20.74
18.15
15.44
12.80
10.35
8.20
6.42
5.04
4.00
3.15
2.28
1.16
-0.39
-2.37
-4.66
-7.00
-9.09
-10.79
-12.17
-13.52
-15.22
-17.57
-20.61
-24.07
-27.47
-30.35
-32.48
-33.96
-35.18
-36.66
-38.89
-42.25
-46.84
-52.32
-57.74
-61.61
-62.08
-57.67
-47.83
-33.36
-16.31
0.72
15.38
26.27
33.16
36.63
37.61
36.94
35.22
32.89
30.43
28.35
27.07
26.74
27.18
27.89
28.28
27.90
26.62
24.71
22.63
20.89
19.76
19.19
18.79
18.03
16.53
14.18
11.26
8.25
5.65
3.71
2.39
1.36
0.23
-1.30
-3.30
-5.61
-7.89
-9.84
-11.30
-12.27
-13.04
-13.96
-15.36
-17.39
-19.88
-22.45
-24.66
-26.22
-27.17
-27.93
-29.12
-31.33
-34.94
-39.87
-45.49
-50.64
-53.77
-53.38
-48.44
-38.87
-25.72
-10.88
3.42
15.32
23.80
28.84
31.09
31.49
30.88
29.79
28.50
27.17
25.99
25.10
24.61
24.42
24.29
23.91
23.07
21.76
20.17
18.63
17.36
16.36
15.39
14.16
12.46
10.25
7.75
5.25
3.06
1.35
0.14
-0.74
-1.52
-2.43
-3.59
-4.97
-6.34
-7.51
-8.37
-9.03
-9.80
-11.02
-12.86
-15.22
-17.71
-19.90
-21.43
-22.28
-22.72
-23.23
-24.33
-26.37
-29.44
-33.26
-37.13
-40.03
-40.79
-38.47
-32.66
-23.79
-13.04
-2.04
7.66
15.02
19.73
22.16
23.00
22.93
22.42
21.68
20.81
19.95
19.21
18.70
18.45
18.30
18.03
17.38
16.22
14.61
12.81
11.14
9.85
9.05
8.67
8.43
8.04
7.25
6.00
4.42
2.78
1.40
0.48
0.04
-0.15
-0.44
-1.24
-2.83
-5.24
-8.26
-11.50
-14.54
-17.08
-18.98
-20.30
-21.24
-22.08
-23.08
-24.48
-26.36
-28.62
-30.85
-32.30
-32.10
-29.53
-24.36
-17.03
-8.60
-0.34
6.64
11.75
14.98
16.70
17.39
17.40
16.93
16.08
15.03
14.01
13.25
12.86
12.74
12.70
12.47
11.95
11.17
10.30
9.49
8.80
8.17
7.46
6.54
5.38
3.99
2.46
0.85
-0.82
-2.57
-4.44
-6.42
-8.43
-10.39
-12.21
-13.80
-15.15
-16.27
-17.26
-18.30
-19.59
-21.37
-23.76
-26.66
-29.63
-31.91
-32.60
-30.90
-26.54
-19.85
-11.81
-3.62
3.59
9.20
13.06
15.47
16.86
17.60
17.90
17.77
17.21
16.26
15.09
13.91
12.90
12.12
11.48
10.74
9.65
8.10
6.12
3.92
1.78
-0.08
-1.59
-2.81
-3.87
-4.93
-6.08
-7.41
-8.90
-10.54
-12.21
-13.76
-15.09
-16.19
-17.17
-18.21
-19.53
-21.35
-23.76
-26.76
-30.11
-33.28
-35.35
-35.30
-32.28
-26.12
-17.45
-7.61
1.78
9.42
14.65
17.56
18.70
18.74
18.21
17.36
16.30
15.10
13.89
12.83
12.07
11.63
11.36
11.03
10.37
9.17
7.40
5.25
3.06
1.15
-0.28
-1.29
-2.17
-3.33
-5.06
-7.40
-10.10
-12.76
-14.99
-16.62
-17.79
-18.87
-20.27
-22.37
-25.38
-29.32
-33.91
-38.54
-42.17
-43.56
-41.56
-35.60
-25.98
-13.97
-1.36
10.08
19.19
25.60
29.58
31.67
32.31
31.71
30.02
27.49
24.58
21.90
19.88
18.61
17.80
16.93
15.53
13.48
11.00
8.52
6.46
4.94
3.69
2.20
-0.08
-3.43
-7.70
-12.33
-16.63
-19.97
-22.15
-23.41
-24.33
-25.63
-27.94
-31.57
-36.40
-41.77
-46.43
-48.79
-47.29
-41.00
-30.01
-15.61
0.08
14.79
26.77
35.21
40.17
42.22
42.09
40.35
37.51
34.05
30.54
27.46
25.10
23.46
22.20
20.88
19.14
16.81
13.99
11.00
8.19
5.88
4.17
2.86
1.53
-0.35
-3.10
-6.67
-10.64
-14.37
-17.34
-19.37
-20.79
-22.19
-24.26
-27.54
-32.22
-38.01
-44.08
-49.07
-51.29
-49.23
-42.11
-30.25
-15.21
0.79
15.52
27.41
35.94
41.42
44.51
45.86
45.82
44.64
42.57
40.04
37.55
35.42
33.69
32.12
30.30
27.97
25.14
22.09
19.30
17.13
15.73
14.89
14.20
13.14
11.42
8.99
6.14
3.35
1.02
-0.71
-2.05
-3.50
-5.56
-8.55
-12.40
-16.73
-20.93
-24.52
-27.26
-29.30
-31.15
-33.51
-37.05
-42.12
-48.47
-55.03
-60.12
-61.73
-58.23
-49.05
-34.94
-17.85
-0.30
15.43
27.92
36.74
42.25
45.10
45.87
44.98
42.85
39.98
37.01
34.56
32.98
32.27
32.08
31.91
31.35
30.24
28.73
27.18
25.93
25.14
24.67
24.21
23.35
21.84
19.68
17.17
14.74
12.77
11.38
10.37
9.32
7.82
5.64
2.88
-0.10
-2.92
-5.34
-7.43
-9.53
-12.00
-15.11
-18.83
-22.86
-26.81
-30.30
-33.15
-35.43
-37.42
-39.53
-42.26
-46.05
-51.08
-57.07
-63.08
-67.56
-68.58
-64.52
-54.72
-39.83
-21.80
-3.23
13.45
26.68
36.03
41.95
45.27
46.70
46.64
45.33
43.01
40.13
37.27
34.94
33.39
32.53
31.98
31.31
30.20
28.65
26.88
25.18
23.79
22.75
21.93
21.11
20.10
18.84
17.37
15.82
14.34
13.04
11.97
11.08
10.28
9.41
8.32
6.94
5.24
3.31
1.29
-0.66
-2.46
-4.08
-5.70
-7.56
-9.94
-12.99
-16.63
-20.51
-24.14
-27.11
-29.23
-30.67
-31.83
-33.22
-35.29
-38.32
-42.33
-47.00
-51.54
-54.68
-54.93
-50.95
-42.21
-29.31
-13.98
1.45
14.79
24.70
30.90
33.94
34.78
34.23
32.81
30.83
28.59
26.45
24.81
23.93
23.75
23.96
24.11
23.83
23.02
21.83
20.51
19.35
18.45
17.71
16.89
15.77
14.22
12.33
10.29
8.31
6.53
4.94
3.39
1.77
0.08
-1.58
-2.99
-4.04
-4.77
-5.44
-6.40
-7.96
-10.21
-12.97
-15.93
-18.76
-21.29
-23.56
-25.78
-28.20
-31.02
-34.34
-38.15
-42.22
-46.01
-48.61
-48.84
-45.63
-38.46
-27.68
-14.61
-1.18
10.71
19.77
25.62
28.64
29.68
29.46
28.54
27.13
25.39
23.55
21.89
20.67
19.97
19.62
19.22
18.42
17.06
15.24
13.26
11.42
9.89
8.62
7.38
5.91
4.10
2.01
-0.10
-1.94
-3.31
-4.23
-4.89
-5.62
-6.68
-8.14
-9.87
-11.63
-13.18
-14.47
-15.65
-17.02
-18.88
-21.51
-24.98
-29.13
-33.49
-37.23
-39.30
-38.66
-34.68
-27.36
-17.56
-6.72
3.55
11.91
17.69
20.92
22.14
22.07
21.30
20.16
18.82
17.32
15.77
14.35
13.21
12.38
11.77
11.16
10.35
9.24
7.92
6.57
5.41
4.58
4.03
3.62
3.13
2.34
1.15
-0.54
-2.69
-5.25
-8.08
-11.06
-14.03
-16.84
-19.42
-21.77
-24.02
-26.41
-29.22
-32.68
-36.73
-40.90
-44.15
-45.15
-42.63
-35.97
-25.51
-12.59
0.82
12.81
22.00
27.97
30.98
31.76
31.02
29.28
26.87
24.03
21.10
18.47
16.54
15.49
15.26
15.54
15.87
15.83
15.17
13.88
12.13
10.19
8.31
6.65
5.21
3.82
2.22
0.08
-2.78
-6.38
-10.49
-14.67
-18.44
-21.48
-23.78
-25.64
-27.55
-29.98
-33.27
-37.51
-42.38
-47.14
-50.57
-51.25
-47.90
-39.93
-27.82
-13.06
2.18
15.79
26.35
33.44
37.43
39.08
39.06
37.73
35.25
31.76
27.64
23.47
19.92
17.50
16.30
16.01
16.04
15.79
14.94
13.50
11.81
10.27
9.15
8.40
7.66
6.45
4.46
1.56
-2.00
-5.79
-9.38
-12.45
-14.96
-17.06
-19.06
-21.30
-24.12
-27.79
-32.45
-38.08
-44.16
-49.62
-52.91
-52.33
-46.66
-35.81
-20.98
-4.40
11.40
24.45
33.83
39.62
42.55
43.40
42.72
40.80
37.88
34.32
30.68
27.51
25.10
23.45
22.27
21.21
20.05
18.78
17.51
16.34
15.28
14.18
12.87
11.29
9.47
7.59
5.80
4.09
2.33
0.32
-2.12
-4.96
-7.98
-10.89
-13.45
-15.59
-17.48
-19.43
-21.75
-24.80
-28.76
-33.59
-38.88
-43.69
-46.61
-46.09
-41.00
-31.16
-17.65
-2.53
11.84
23.50
31.54
36.06
37.83
37.79
36.64
34.76
32.39
29.80
27.35
25.45
24.35
23.99
24.07
24.11
23.70
22.66
21.09
19.28
17.66
16.48
15.84
15.54
15.19
14.42
12.91
10.65
7.86
4.96
2.37
0.32
-1.25
-2.71
-4.54
-7.09
-10.37
-14.05
-17.56
-20.40
-22.36
-23.61
-24.59
-25.77
-27.48
-29.85
-32.88
-36.46
-40.25
-43.57
-45.32
-44.19
-39.12
-29.94
-17.54
-3.79
9.10
19.37
26.22
29.85
31.09
30.86
29.82
28.33
26.55
24.70
23.05
21.84
21.18
20.92
20.77
20.38
19.58
18.38
16.97
15.63
14.53
13.72
13.04
12.28
11.26
9.92
8.33
6.63
4.95
3.35
1.90
0.63
-0.41
-1.21
-1.87
-2.58
-3.58
-5.05
-7.02
-9.38
-11.91
-14.40
-16.68
-18.66
-20.35
-21.80
-23.18
-24.79
-26.98
-30.05
-34.02
-38.41
-42.22
-44.14
-42.97
-38.05
-29.65
-18.83
-7.23
3.51
12.24
18.48
22.40
24.52
25.37
25.36
24.70
23.55
22.16
20.86
19.93
19.55
19.65
19.91
19.99
19.59
18.64
17.30
15.83
14.52
13.54
12.87
12.35
11.75
10.85
9.52
7.79
5.82
3.87
2.15
0.80
-0.26
-1.21
-2.26
-3.56
-5.17
-6.97
-8.87
-10.78
-12.68
-14.59
-16.49
-18.36
-20.18
-22.04
-24.15
-26.79
-30.13
-33.99
-37.71
-40.21
-40.29
-37.06
-30.33
-20.83
-9.98
0.53
9.31
15.63
19.49
21.42
22.05
21.92
21.32
20.40
19.32
18.30
17.54
17.18
17.14
17.21
17.14
16.73
15.96
14.97
14.02
13.32
12.97
12.85
12.71
12.23
11.22
9.65
7.74
5.74
3.91
2.37
1.14
0.18
-0.54
-1.10
-1.62
-2.34
-3.45
-5.06
-7.04
-9.11
-10.91
-12.28
-13.27
-14.17
-15.26
-16.74
-18.59
-20.69
-22.83
-24.78
-26.23
-26.74
-25.75
-22.84
-17.92
-11.44
-4.28
2.46
7.91
11.64
13.72
14.55
14.62
14.34
13.93
13.47
12.99
12.53
12.14
11.85
11.65
11.49
11.27
10.94
10.48
9.96
9.48
9.18
9.05
8.97
8.68
7.91
6.50
4.53
2.26
0.05
-1.80
-3.18
-4.12
-4.86
-5.64
-6.61
-7.76
-8.93
-9.92
-10.53
-10.71
-10.58
-10.37
-10.39
-10.89
-12.01
-13.76
-16.03
-18.61
-21.12
-23.05
-23.81
-22.88
-20.07
-15.56
-10.00
-4.23
0.94
4.98
7.72
9.30
10.01
10.09
9.76
9.18
8.49
7.85
7.33
6.99
6.80
6.69
6.60
6.49
6.35
6.19
6.00
5.74
5.34
4.77
4.05
3.24
2.46
1.78
1.25
0.80
0.32
-0.30
-1.09
-1.99
-2.90
-3.70
-4.40
-5.03
-5.72
-6.61
-7.85
-9.50
-11.63
-14.16
-16.87
-19.42
-21.33
-22.09
-21.33
-18.88
-14.92
-9.91
-4.52
0.58
4.83
7.95
9.95
11.02
11.46
11.52
11.36
11.05
10.59
10.00
9.29
8.49
7.66
6.83
5.98
5.14
4.27
3.39
2.53
1.73
1.01
0.35
-0.30
-1.01
-1.85
-2.87
-4.09
-5.53
-7.16
-8.89
-10.61
-12.16
-13.51
-14.65
-15.68
-16.73
-17.95
-19.42
-21.16
-23.08
-24.95
-26.37
-26.76
-25.50
-22.20
-16.90
-10.22
-3.17
3.16
7.98
11.04
12.58
13.10
13.09
12.84
12.39
11.71
10.81
9.82
8.93
8.30
7.98
7.89
7.87
7.82
7.66
7.43
7.19
6.95
6.71
6.42
6.03
5.52
4.89
4.09
3.06
1.66
-0.18
-2.41
-4.88
-7.36
-9.63
-11.60
-13.33
-15.00
-16.78
-18.88
-21.42
-24.43
-27.82
-31.14
-33.66
-34.41
-32.55
-27.68
-20.17
-11.04
-1.77
6.31
12.34
16.18
18.20
18.99
19.09
18.77
18.19
17.45
16.75
16.32
16.28
16.59
16.99
17.16
16.87
16.12
15.08
14.00
13.00
12.01
10.84
9.33
7.45
5.34
3.21
1.24
-0.50
-2.11
-3.72
-5.48
-7.39
-9.38
-11.37
-13.29
-15.16
-17.05
-19.03
-21.21
-23.71
-26.66
-30.05
-33.63
-36.68
-38.15
-36.91
-32.26
-24.29
-14.02
-3.04
6.98
14.89
20.33
23.61
25.32
26.04
26.10
25.62
24.67
23.42
22.10
20.95
20.08
19.42
18.83
18.12
17.25
16.24
15.17
14.09
12.96
11.70
10.24
8.55
6.69
4.79
3.00
1.35
-0.19
-1.76
-3.52
-5.56
-7.85
-10.25
-12.56
-14.59
-16.28
-17.70
-19.06
-20.63
-22.74
-25.60
-29.26
-33.38
-37.20
-39.56
-39.25
-35.40
-27.91
-17.58
-5.87
5.50
15.14
22.25
26.78
29.12
29.88
29.55
28.52
27.02
25.30
23.61
22.18
21.11
20.33
19.63
18.72
17.43
15.79
13.99
12.33
11.02
10.07
9.33
8.53
7.46
6.03
4.33
2.51
0.74
-0.94
-2.58
-4.29
-6.15
-8.16
-10.22
-12.18
-14.00
-15.69
-17.44
-19.47
-22.03
-25.29
-29.27
-33.70
-37.94
-40.98
-41.66
-38.99
-32.60
-22.98
-11.43
0.29
10.57
18.40
23.50
26.21
27.17
26.94
25.91
24.36
22.58
20.89
19.64
18.97
18.75
18.67
18.35
17.59
16.41
15.09
13.92
13.09
12.53
12.00
11.27
10.12
8.56
6.71
4.74
2.78
0.85
-1.17
-3.41
-6.01
-8.98
-12.13
-15.18
-17.80
-19.82
-21.29
-22.53
-23.97
-26.05
-29.07
-33.05
-37.66
-42.10
-45.23
-45.70
-42.39
-34.89
-23.77
-10.51
2.92
14.68
23.61
29.45
32.62
33.88
33.89
33.13
31.89
30.45
29.07
28.04
27.47
27.26
27.14
26.71
25.67
23.93
21.64
19.17
16.98
15.34
14.32
13.66
12.93
11.73
9.88
7.50
5.00
2.87
1.44
0.77
0.53
0.22
-0.67
-2.43
-5.03
-8.15
-11.36
-14.30
-16.87
-19.22
-21.66
-24.49
-27.88
-31.87
-36.24
-40.58
-44.15
-45.92
-44.80
-39.99
-31.40
-19.84
-6.92
5.46
15.70
22.96
27.27
29.22
29.62
29.09
28.00
26.53
24.85
23.24
21.98
21.30
21.20
21.47
21.73
21.61
20.89
19.60
18.01
16.56
15.60
15.27
15.40
15.55
15.23
14.17
12.39
10.19
7.99
6.11
4.59
3.25
1.71
-0.40
-3.26
-6.84
-10.85
-14.81
-18.28
-20.95
-22.81
-24.16
-25.51
-27.43
-30.28
-34.20
-38.89
-43.61
-47.22
-48.34
-45.85
-39.22
-28.91
-16.31
-3.36
8.12
16.90
22.67
25.83
27.13
27.25
26.67
25.67
24.48
23.38
22.65
22.46
22.73
23.17
23.37
23.02
22.00
20.45
18.70
17.10
15.89
15.14
14.66
14.14
13.23
11.68
9.52
7.00
4.57
2.62
1.32
0.49
-0.29
-1.52
-3.49
-6.15
-9.12
-11.88
-14.07
-15.59
-16.68
-17.78
-19.33
-21.67
-24.91
-28.97
-33.53
-38.03
-41.58
-43.14
-41.73
-36.79
-28.53
-17.92
-6.59
3.79
12.00
17.57
20.76
22.25
22.72
22.61
22.09
21.19
20.05
18.91
18.08
17.76
17.87
18.13
18.14
17.68
16.75
15.59
14.52
13.75
13.26
12.75
11.88
10.39
8.31
5.92
3.60
1.65
0.11
-1.26
-2.82
-4.85
-7.44
-10.38
-13.29
-15.81
-17.71
-19.02
-19.95
-20.89
-22.17
-24.12
-26.91
-30.50
-34.46
-38.02
-40.07
-39.44
-35.37
-27.84
-17.73
-6.59
3.86
12.32
18.26
21.86
23.74
24.54
24.70
24.40
23.72
22.84
21.97
21.30
20.78
20.18
19.18
17.57
15.47
13.24
11.33
10.02
9.30
8.85
8.26
7.24
5.75
3.98
2.17
0.49
-1.04
-2.55
-4.25
-6.30
-8.68
-11.25
-13.78
-16.05
-17.94
-19.50
-20.96
-22.61
-24.81
-27.80
-31.72
-36.33
-40.98
-44.54
-45.59
-42.90
-35.94
-25.25
-12.34
0.74
12.12
20.62
26.01
28.79
29.70
29.38
28.20
26.34
24.00
21.53
19.38
17.89
17.19
17.09
17.19
17.11
16.61
15.78
14.87
14.13
13.62
13.11
12.22
10.62
8.24
5.35
2.39
-0.23
-2.33
-4.09
-5.89
-8.12
-10.90
-14.08
-17.25
-19.95
-21.89
-23.11
-23.95
-24.96
-26.69
-29.56
-33.67
-38.78
-44.16
-48.60
-50.62
-48.76
-42.21
-31.17
-16.94
-1.65
12.44
23.67
31.27
35.46
36.98
36.69
35.28
33.22
30.88
28.67
26.98
26.00
25.62
25.42
24.85
23.54
21.40
18.73
16.05
13.87
12.42
11.60
11.04
10.28
8.99
7.11
4.82
2.45
0.31
-1.45
-2.93
-4.40
-6.22
-8.63
-11.67
-15.07
-18.41
-21.25
-23.34
-24.73
-25.79
-27.10
-29.29
-32.78
-37.48
-42.71
-47.16
-49.19
-47.36
-40.93
-30.27
-16.80
-2.56
10.47
20.95
28.37
32.92
35.17
35.64
34.72
32.75
30.11
27.29
24.82
23.06
22.10
21.72
21.49
20.99
19.93
18.35
16.55
14.98
14.00
13.71
13.85
13.91
13.38
11.96
9.78
7.20
4.76
2.77
1.32
0.14
-1.21
-3.14
-5.83
-9.14
-12.71
-16.09
-18.95
-21.16
-22.81
-24.21
-25.77
-27.92
-30.98
-34.94
-39.39
-43.34
-45.41
-44.24
-38.97
-29.67
-17.45
-4.14
8.36
18.64
26.04
30.68
32.99
33.50
32.60
30.59
27.84
24.90
22.39
20.79
20.22
20.40
20.75
20.72
20.02
18.72
17.22
15.99
15.32
15.11
14.99
14.45
13.13
10.96
8.19
5.23
2.47
0.07
-2.03
-4.05
-6.32
-8.98
-12.01
-15.21
-18.21
-20.73
-22.61
-23.93
-24.92
-25.99
-27.53
-29.91
-33.33
-37.62
-42.11
-45.65
-46.78
-44.26
-37.57
-27.15
-14.45
-1.36
10.35
19.56
25.90
29.61
31.20
31.21
30.09
28.25
26.10
24.03
22.31
21.07
20.23
19.64
19.10
18.45
17.63
16.64
15.52
14.37
13.25
12.13
10.94
9.59
8.02
6.30
4.59
3.04
1.71
0.49
-0.91
-2.78
-5.30
-8.37
-11.69
-14.84
-17.55
-19.77
-21.69
-23.67
-26.06
-29.10
-32.81
-36.87
-40.52
-42.65
-41.99
-37.56
-29.14
-17.52
-4.36
8.32
18.83
26.23
30.52
32.26
32.21
31.00
28.99
26.51
23.85
21.41
19.48
18.19
17.45
17.01
16.63
16.18
15.61
14.92
14.05
12.89
11.29
9.19
6.67
3.89
1.06
-1.64
-4.15
-6.48
-8.70
-10.90
-13.11
-15.26
-17.24
-18.89
-20.12
-21.03
-21.83
-22.86
-24.55
-27.18
-30.87
-35.31
-39.74
-42.95
-43.57
-40.44
-33.16
-22.25
-9.17
4.13
15.81
24.67
30.39
33.31
34.16
33.64
32.27
30.38
28.25
26.17
24.41
23.09
22.17
21.47
20.69
19.69
18.45
17.12
15.86
14.74
13.68
12.45
10.82
8.67
6.08
3.31
0.66
-1.68
-3.69
-5.55
-7.58
-10.00
-12.84
-15.93
-18.91
-21.41
-23.20
-24.33
-25.15
-26.26
-28.29
-31.70
-36.52
-42.15
-47.29
-50.27
-49.47
-43.92
-33.75
-20.13
-5.12
9.14
20.96
29.50
34.75
37.23
37.60
36.45
34.27
31.48
28.55
25.97
24.03
22.76
21.89
20.99
19.72
18.05
16.23
14.63
13.59
13.18
13.14
13.08
12.59
11.43
9.62
7.42
5.16
3.15
1.55
0.33
-0.76
-2.05
-3.83
-6.21
-9.00
-11.82
-14.28
-16.18
-17.64
-19.07
-20.98
-23.85
-27.93
-33.11
-38.82
-43.98
-47.18
-46.98
-42.39
-33.37
-20.95
-6.99
6.42
17.62
25.81
31.01
33.73
34.57
33.98
32.30
29.89
27.24
24.88
23.17
22.20
21.68
21.17
20.25
18.78
16.90
14.98
13.38
12.31
11.73
11.34
10.75
9.60
7.76
5.35
2.74
0.30
-1.67
-3.12
-4.22
-5.29
-6.68
-8.58
-10.95
-13.55
-16.06
-18.20
-19.85
-21.17
-22.47
-24.18
-26.66
-30.14
-34.53
-39.34
-43.62
-46.03
-45.16
-40.14
-30.92
-18.57
-4.96
7.92
18.51
26.15
30.94
33.43
34.25
33.86
32.60
30.79
28.77
26.90
25.38
24.15
22.98
21.58
19.78
17.62
15.33
13.18
11.38
10.00
8.93
8.02
7.03
5.83
4.38
2.76
1.14
-0.27
-1.38
-2.23
-3.04
-4.14
-5.80
-8.10
-10.87
-13.75
-16.33
-18.34
-19.84
-21.11
-22.63
-24.88
-28.19
-32.58
-37.62
-42.35
-45.44
-45.45
-41.34
-32.92
-21.08
-7.56
5.55
16.52
24.39
29.12
31.28
31.66
30.89
29.39
27.43
25.32
23.40
21.98
21.14
20.68
20.28
19.56
18.38
16.82
15.14
13.61
12.36
11.35
10.43
9.39
8.12
6.65
5.10
3.65
2.41
1.34
0.29
-0.95
-2.54
-4.47
-6.57
-8.56
-10.21
-11.52
-12.64
-13.94
-15.83
-18.61
-22.37
-26.88
-31.47
-35.13
-36.68
-35.15
-30.13
-22.05
-12.08
-1.81
7.24
14.05
18.30
20.24
20.42
19.45
17.81
15.89
14.00
12.38
11.20
10.50
10.22
10.16
10.12
9.93
9.50
8.72
7.60
6.18
4.56
2.88
1.27
-0.18
-1.51
-2.83
-4.36
-6.28
-8.68
-11.51
-14.59
-17.66
-20.42
-22.67
-24.38
-25.73
-27.03
-28.68
-31.03
-34.28
-38.29
-42.54
-46.01
-47.38
-45.35
-39.09
-28.67
-15.20
-0.59
13.03
23.99
31.44
35.47
36.78
36.21
34.52
32.20
29.64
27.16
25.06
23.54
22.60
22.06
21.59
20.91
19.85
18.42
16.75
14.97
13.19
11.44
9.70
7.92
6.10
4.25
2.38
0.45
-1.59
-3.84
-6.35
-9.10
-11.95
-14.70
-17.15
-19.19
-20.84
-22.28
-23.86
-25.94
-28.88
-32.86
-37.67
-42.58
-46.34
-47.41
-44.46
-36.94
-25.37
-11.34
3.06
15.86
25.79
32.48
36.27
37.84
37.82
36.68
34.79
32.48
30.10
27.98
26.25
24.82
23.52
22.07
20.34
18.35
16.20
14.06
12.05
10.19
8.48
6.83
5.18
3.49
1.78
0.11
-1.39
-2.66
-3.73
-4.78
-6.04
-7.69
-9.78
-12.12
-14.46
-16.56
-18.40
-20.17
-22.21
-24.93
-28.57
-33.11
-38.09
-42.54
-45.19
-44.62
-39.90
-30.91
-18.63
-4.84
8.35
19.26
27.04
31.73
33.94
34.46
33.89
32.63
31.00
29.28
27.77
26.69
26.06
25.62
25.00
23.88
22.13
19.90
17.53
15.44
13.88
12.91
12.33
11.81
11.04
9.89
8.40
6.75
5.12
3.58
2.08
0.45
-1.50
-3.89
-6.68
-9.70
-12.65
-15.30
-17.50
-19.38
-21.18
-23.27
-25.98
-29.47
-33.59
-37.84
-41.32
-42.90
-41.48
-36.38
-27.69
-16.40
-4.19
7.10
16.00
21.80
24.62
25.11
24.08
22.29
20.25
18.31
16.71
15.62
15.13
15.18
15.57
16.03
16.30
16.20
15.70
14.82
13.67
12.32
10.83
9.20
7.46
5.62
3.80
2.06
0.44
-1.11
-2.77
-4.70
-6.97
-9.51
-12.12
-14.49
-16.43
-17.89
-19.04
-20.25
-21.94
-24.53
-28.21
-32.77
-37.46
-41.06
-42.19
-39.68
-33.16
-23.20
-11.20
0.97
11.65
19.76
24.98
27.64
28.37
27.79
26.34
24.33
21.98
19.56
17.39
15.73
14.66
14.07
13.67
13.11
12.19
10.90
9.37
7.81
6.44
5.32
4.48
3.79
3.11
2.16
0.73
-1.34
-4.01
-6.95
-9.75
-11.99
-13.50
-14.47
-15.28
-16.44
-18.31
-21.11
-24.88
-29.51
-34.65
-39.54
-43.04
-43.78
-40.67
-33.38
-22.60
-9.96
2.57
13.30
21.26
26.37
29.11
30.19
30.20
29.48
28.24
26.64
24.90
23.26
21.95
21.05
20.49
20.02
19.28
17.98
16.00
13.47
10.73
8.16
6.01
4.27
2.60
0.62
-2.04
-5.44
-9.32
-13.28
-16.83
-19.72
-21.93
-23.63
-25.16
-26.91
-29.29
-32.66
-37.26
-42.94
-48.97
-53.96
-56.10
-53.79
-46.21
-33.82
-18.24
-1.82
13.14
25.02
33.14
37.67
39.22
38.50
36.15
32.72
28.74
24.77
21.27
18.59
16.79
15.75
15.11
14.49
13.55
12.13
10.30
8.26
6.29
4.63
3.32
2.22
1.00
-0.65
-2.98
-5.98
-9.35
-12.62
-15.28
-17.04
-17.97
-18.50
-19.31
-21.07
-24.25
-28.93
-34.72
-40.68
-45.38
-47.20
-44.71
-37.22
-25.14
-9.99
5.96
20.42
31.76
39.27
43.20
44.25
43.28
40.94
37.72
33.99
30.12
26.57
23.67
21.58
20.22
19.32
18.51
17.48
16.04
14.16
12.03
9.89
7.90
6.10
4.30
2.17
-0.61
-4.18
-8.37
-12.73
-16.68
-19.77
-21.88
-23.33
-24.73
-26.80
-30.07
-34.79
-40.82
-47.55
-53.87
-58.22
-58.87
-54.40
-44.36
-29.55
-12.02
5.62
21.00
32.69
40.36
44.59
46.26
46.15
44.75
42.42
39.52
36.51
33.79
31.58
29.82
28.23
26.53
24.57
22.45
20.39
18.62
17.21
16.04
14.81
13.22
11.09
8.45
5.54
2.63
-0.05
-2.48
-4.86
-7.46
-10.51
-14.01
-17.75
-21.40
-24.65
-27.37
-29.67
-31.92
-34.67
-38.44
-43.58
-49.95
-56.70
-62.28
-64.66
-62.05
-53.50
-39.49
-21.88
-3.33
13.55
27.02
36.51
42.40
45.54
46.68
46.27
44.58
41.92
38.79
35.80
33.48
31.97
31.02
30.17
28.97
27.24
25.13
23.01
21.28
20.16
19.59
19.33
19.02
18.32
16.98
14.95
12.34
9.45
6.68
4.39
2.72
1.51
0.31
-1.46
-4.20
-7.99
-12.47
-17.05
-21.11
-24.30
-26.60
-28.35
-30.05
-32.27
-35.51
-40.12
-46.07
-52.75
-58.82
-62.35
-61.39
-54.66
-42.22
-25.58
-7.31
9.88
23.96
34.04
40.32
43.63
44.87
44.68
43.47
41.55
39.27
36.99
35.03
33.53
32.43
31.49
30.47
29.15
27.45
25.48
23.42
21.50
19.86
18.52
17.29
15.93
14.20
12.05
9.58
7.05
4.75
2.85
1.39
0.29
-0.60
-1.49
-2.56
-4.03
-6.00
-8.47
-11.29
-14.19
-16.83
-18.98
-20.58
-21.82
-23.06
-24.76
-27.29
-30.86
-35.33
-40.08
-44.00
-45.63
-43.61
-37.11
-26.36
-12.69
1.83
14.97
25.15
31.67
34.81
35.38
34.25
32.09
29.29
26.17
23.09
20.48
18.69
17.87
17.88
18.34
18.76
18.78
18.28
17.33
16.18
15.11
14.31
13.77
13.36
12.84
11.97
10.67
8.93
6.90
4.80
2.83
1.07
-0.49
-1.95
-3.42
-4.94
-6.53
-8.13
-9.75
-11.36
-12.98
-14.54
-15.94
-17.04
-17.79
-18.26
-18.75
-19.69
-21.54
-24.52
-28.41
-32.46
-35.47
-36.11
-33.45
-27.26
-18.28
-7.94
2.03
10.23
15.92
19.07
20.20
19.95
18.88
17.37
15.70
14.12
12.90
12.26
12.23
12.67
13.27
13.71
13.73
13.26
12.40
11.35
10.33
9.47
8.80
8.17
7.41
6.30
4.78
2.89
0.85
-1.08
-2.68
-3.86
-4.69
-5.40
-6.21
-7.31
-8.68
-10.15
-11.46
-12.46
-13.16
-13.77
-14.60
-15.96
-18.04
-20.83
-24.08
-27.25
-29.50
-29.92
-27.76
-22.79
-15.52
-7.09
1.03
7.63
12.06
14.38
15.15
15.05
14.54
13.83
12.97
11.99
10.99
10.10
9.40
8.89
8.46
8.01
7.47
6.80
6.06
5.29
4.55
3.85
3.26
2.74
2.22
1.61
0.82
-0.21
-1.43
-2.74
-4.08
-5.37
-6.64
-7.90
-9.17
-10.42
-11.64
-12.87
-14.19
-15.79
-17.80
-20.30
-23.09
-25.69
-27.40
-27.46
-25.31
-20.84
-14.47
-7.12
0.11
6.28
10.86
13.76
15.28
15.79
15.61
14.93
13.87
12.54
11.07
9.67
8.48
7.56
6.86
6.25
5.59
4.81
3.90
2.93
2.02
1.22
0.58
0.06
-0.46
-1.12
-2.10
-3.51
-5.35
-7.54
-9.88
-12.15
-14.15
-15.76
-17.03
-18.11
-19.25
-20.74
-22.83
-25.61
-28.89
-32.09
-34.30
-34.48
-31.79
-26.00
-17.62
-7.84
1.90
10.28
16.52
20.42
22.21
22.35
21.30
19.46
17.19
14.88
12.93
11.62
11.01
10.94
11.05
10.90
10.18
8.77
6.79
4.53
2.38
0.63
-0.63
-1.54
-2.44
-3.66
-5.44
-7.82
-10.58
-13.41
-15.93
-17.90
-19.26
-20.19
-21.04
-22.27
-24.37
-27.58
-31.81
-36.39
-40.19
-41.82
-40.11
-34.58
-25.62
-14.44
-2.67
8.13
16.92
23.26
27.24
29.19
29.49
28.51
26.64
24.33
22.06
20.25
19.07
18.40
17.94
17.33
16.31
14.77
12.84
10.74
8.72
6.93
5.40
3.99
2.44
0.51
-1.99
-5.03
-8.35
-11.58
-14.30
-16.31
-17.71
-18.84
-20.29
-22.56
-25.98
-30.47
-35.47
-39.94
-42.57
-42.10
-37.77
-29.60
-18.51
-6.11
5.79
15.75
23.00
27.49
29.68
30.16
29.42
27.79
25.57
23.10
20.78
18.97
17.83
17.24
16.85
16.20
14.94
12.96
10.41
7.65
5.08
3.02
1.50
0.28
-1.07
-2.97
-5.64
-8.91
-12.39
-15.54
-17.98
-19.67
-20.94
-22.33
-24.36
-27.41
-31.60
-36.73
-42.24
-47.13
-50.03
-49.49
-44.44
-34.72
-21.33
-6.21
8.37
20.54
29.33
34.73
37.37
38.07
37.45
35.87
33.59
30.92
28.27
26.01
24.35
23.23
22.34
21.36
20.08
18.50
16.83
15.29
14.00
12.91
11.81
10.52
8.92
7.05
5.08
3.14
1.22
-0.79
-3.07
-5.79
-8.90
-12.25
-15.57
-18.61
-21.22
-23.44
-25.49
-27.76
-30.75
-34.95
-40.49
-46.92
-53.00
-56.85
-56.55
-50.80
-39.63
-24.48
-7.78
7.93
20.81
30.07
35.93
39.12
40.41
40.29
39.07
37.06
34.73
32.60
31.12
30.41
30.32
30.46
30.46
30.12
29.38
28.38
27.26
26.15
25.09
24.05
22.97
21.75
20.31
18.56
16.48
14.08
11.50
8.91
6.50
4.39
2.60
0.96
-0.80
-2.98
-5.76
-9.13
-12.80
-16.39
-19.48
-21.88
-23.68
-25.23
-27.02
-29.51
-33.00
-37.52
-42.72
-47.77
-51.41
-52.16
-48.70
-40.48
-28.06
-13.06
2.26
15.78
26.12
32.94
36.72
38.34
38.50
37.60
35.81
33.30
30.43
27.76
25.74
24.58
24.13
23.93
23.57
22.82
21.75
20.66
19.79
19.18
18.67
17.98
16.87
15.33
13.56
11.85
10.40
9.20
8.03
6.65
4.85
2.67
0.37
-1.79
-3.62
-5.17
-6.71
-8.51
-10.75
-13.36
-16.08
-18.58
-20.69
-22.42
-24.03
-25.87
-28.24
-31.36
-35.23
-39.61
-43.88
-47.02
-47.78
-44.97
-38.02
-27.25
-13.97
-0.15
12.24
21.80
28.01
31.18
32.03
31.37
29.86
27.91
25.79
23.81
22.21
21.16
20.67
20.56
20.52
20.27
19.63
18.64
17.45
16.34
15.51
15.02
14.75
14.39
13.60
12.15
10.03
7.43
4.73
2.27
0.24
-1.44
-3.04
-4.91
-7.26
-10.05
-13.01
-15.76
-17.95
-19.46
-20.41
-21.15
-22.10
-23.68
-26.14
-29.52
-33.46
-37.22
-39.66
-39.59
-36.12
-29.09
-19.20
-7.86
3.25
12.70
19.66
24.01
26.10
26.48
25.66
24.05
22.00
19.87
18.05
16.81
16.22
16.09
16.07
15.77
14.98
13.77
12.36
11.05
9.96
9.00
7.95
6.59
4.87
2.93
1.06
-0.54
-1.83
-2.98
-4.24
-5.80
-7.70
-9.77
-11.82
-13.66
-15.25
-16.69
-18.14
-19.81
-21.88
-24.54
-27.87
-31.70
-35.45
-38.13
-38.51
-35.55
-28.89
-19.15
-7.80
3.26
12.36
18.59
21.91
22.96
22.62
21.61
20.34
19.00
17.68
16.51
15.68
15.36
15.54
16.02
16.47
16.58
16.16
15.24
13.93
12.43
10.85
9.14
7.19
4.90
2.27
-0.56
-3.36
-5.98
-8.35
-10.50
-12.50
-14.36
-16.05
-17.58
-19.00
-20.43
-22.06
-24.07
-26.62
-29.79
-33.51
-37.38
-40.63
-42.08
-40.51
-35.07
-25.82
-13.83
-0.98
10.71
19.72
25.44
28.19
28.78
28.09
26.73
24.98
22.94
20.74
18.59
16.75
15.41
14.53
13.96
13.42
12.71
11.75
10.64
9.51
8.50
7.67
6.91
6.13
5.21
4.10
2.79
1.30
-0.40
-2.35
-4.53
-6.90
-9.33
-11.66
-13.83
-15.81
-17.70
-19.65
-21.82
-24.41
-27.63
-31.56
-35.92
-39.96
-42.45
-41.97
-37.52
-28.97
-17.27
-4.22
8.14
18.16
25.03
28.77
30.00
29.47
27.82
25.53
22.98
20.54
18.56
17.25
16.60
16.42
16.39
16.26
15.91
15.37
14.76
14.16
13.53
12.73
11.55
9.88
7.71
5.26
2.80
0.60
-1.25
-2.88
-4.60
-6.73
-9.39
-12.45
-15.55
-18.29
-20.39
-21.87
-23.05
-24.42
-26.51
-29.64
-33.80
-38.48
-42.71
-45.13
-44.42
-39.68
-30.84
-18.85
-5.39
7.56
18.34
26.02
30.52
32.36
32.33
31.15
29.34
27.29
25.24
23.46
22.10
21.23
20.74
20.48
20.22
19.77
19.10
18.25
17.34
16.49
15.72
14.89
13.78
12.16
9.89
7.11
4.10
1.26
-1.12
-3.00
-4.68
-6.55
-8.92
-11.81
-14.92
-17.77
-19.96
-21.37
-22.29
-23.24
-24.83
-27.49
-31.38
-36.14
-40.99
-44.66
-45.72
-42.95
-35.82
-24.85
-11.52
2.10
14.02
22.94
28.47
31.06
31.59
30.96
29.73
28.22
26.56
24.96
23.66
22.84
22.56
22.56
22.41
21.70
20.28
18.31
16.21
14.48
13.39
12.94
12.76
12.42
11.53
9.93
7.75
5.32
3.02
1.09
-0.44
-1.80
-3.32
-5.26
-7.62
-10.18
-12.53
-14.33
-15.50
-16.25
-17.05
-18.43
-20.79
-24.31
-28.85
-33.98
-38.86
-42.38
-43.26
-40.48
-33.63
-23.20
-10.60
2.28
13.60
22.12
27.48
30.06
30.65
30.00
28.63
26.80
24.68
22.49
20.54
19.10
18.30
18.05
18.03
17.88
17.33
16.34
15.06
13.77
12.70
11.88
11.16
10.22
8.79
6.76
4.32
1.88
-0.15
-1.57
-2.54
-3.49
-4.97
-7.22
-10.10
-13.16
-15.85
-17.81
-19.12
-20.18
-21.54
-23.64
-26.69
-30.60
-34.97
-39.09
-41.97
-42.46
-39.55
-32.77
-22.54
-10.17
2.48
13.52
21.70
26.65
28.77
28.89
27.87
26.26
24.38
22.42
20.56
19.05
18.07
17.61
17.44
17.23
16.64
15.57
14.15
12.68
11.43
10.46
9.66
8.78
7.58
6.00
4.15
2.27
0.53
-1.03
-2.57
-4.28
-6.36
-8.84
-11.60
-14.38
-16.93
-19.07
-20.84
-22.41
-24.09
-26.21
-28.97
-32.29
-35.71
-38.32
-39.00
-36.69
-30.92
-22.00
-11.07
0.25
10.32
18.05
23.06
25.60
26.25
25.59
24.06
21.92
19.43
16.85
14.53
12.74
11.62
11.13
11.05
11.08
10.98
10.60
9.88
8.88
7.74
6.56
5.41
4.28
3.08
1.64
-0.13
-2.35
-4.99
-7.93
-10.93
-13.71
-16.07
-17.90
-19.33
-20.64
-22.24
-24.53
-27.83
-32.15
-37.09
-41.72
-44.74
-44.74
-40.70
-32.45
-20.85
-7.62
5.21
15.96
23.72
28.39
30.45
30.59
29.38
27.20
24.33
21.09
17.83
14.92
12.66
11.12
10.23
9.69
9.21
8.53
7.51
6.20
4.74
3.34
2.06
0.81
-0.66
-2.69
-5.52
-9.17
-13.36
-17.61
-21.36
-24.25
-26.22
-27.64
-29.13
-31.36
-34.91
-40.02
-46.49
-53.56
-59.88
-63.76
-63.49
-57.93
-47.02
-31.88
-14.66
2.23
16.77
27.92
35.58
40.27
42.63
43.04
41.66
38.57
34.13
29.00
24.08
20.14
17.65
16.53
16.33
16.43
16.30
15.74
14.89
14.06
13.52
13.24
12.88
11.83
9.55
5.77
0.73
-4.95
-10.42
-15.02
-18.45
-20.93
-23.06
-25.62
-29.28
-34.50
-41.37
-49.49
-57.93
-65.20
-69.40
-68.80
-62.34
-50.13
-33.52
-14.82
3.47
19.35
31.75
40.57
46.28
49.53
50.82
50.47
48.70
45.82
42.26
38.55
35.18
32.48
30.59
29.39
28.64
28.03
27.27
26.19
24.75
23.03
21.15
19.20
17.16
14.81
11.89
8.18
3.69
-1.35
-6.45
-11.13
-15.12
-18.45
-21.43
-24.47
-27.99
-32.33
-37.75
-44.37
-51.88
-59.41
-65.36
-67.70
-64.61
-55.25
-40.17
-21.30
-1.31
17.23
32.62
44.15
51.98
56.55
58.30
57.59
54.83
50.70
46.07
41.84
38.57
36.40
35.04
34.00
32.95
31.82
30.79
30.11
29.88
29.93
29.86
29.13
27.32
24.26
20.17
15.55
11.02
7.09
3.95
1.44
-0.96
-3.81
-7.48
-11.98
-16.95
-21.82
-26.06
-29.43
-32.10
-34.61
-37.69
-42.01
-47.87
-55.03
-62.54
-68.72
-71.58
-69.31
-60.92
-46.69
-28.25
-8.13
11.00
27.08
39.09
47.05
51.65
53.70
53.82
52.45
49.93
46.72
43.39
40.46
38.25
36.79
35.81
34.94
33.95
32.78
31.54
30.41
29.46
28.57
27.54
26.18
24.42
22.36
20.18
18.06
16.01
13.91
11.58
8.88
5.83
2.58
-0.62
-3.57
-6.25
-8.75
-11.23
-13.80
-16.41
-18.89
-21.01
-22.61
-23.74
-24.68
-25.84
-27.69
-30.61
-34.81
-40.17
-46.13
-51.56
-54.96
-54.68
-49.55
-39.35
-25.08
-8.74
7.24
20.83
30.86
37.20
40.43
41.39
40.78
39.04
36.47
33.41
30.31
27.63
25.68
24.51
23.90
23.44
22.77
21.67
20.19
18.54
16.97
15.66
14.62
13.77
12.93
11.94
10.67
9.06
7.16
5.04
2.83
0.71
-1.21
-2.91
-4.49
-6.10
-7.90
-9.98
-12.33
-14.84
-17.38
-19.75
-21.87
-23.66
-25.12
-26.41
-27.80
-29.66
-32.43
-36.35
-41.38
-46.87
-51.61
-53.99
-52.47
-46.17
-35.28
-21.11
-5.73
8.69
20.53
29.00
34.17
36.58
36.97
35.96
34.08
31.75
29.41
27.37
25.83
24.81
24.15
23.63
22.97
21.99
20.63
18.91
16.95
14.95
13.06
11.33
9.70
8.05
6.22
4.21
2.07
-0.01
-1.92
-3.58
-5.03
-6.33
-7.56
-8.79
-10.06
-11.48
-13.12
-15.06
-17.24
-19.52
-21.63
-23.31
-24.42
-25.00
-25.33
-25.86
-27.07
-29.34
-32.68
-36.56
-39.93
-41.38
-39.65
-34.02
-24.71
-12.87
-0.28
11.24
20.31
26.33
29.44
30.23
29.39
27.56
25.20
22.66
20.29
18.36
17.03
16.25
15.81
15.40
14.74
13.70
12.33
10.82
9.36
8.12
7.15
6.37
5.63
4.78
3.71
2.45
1.12
-0.12
-1.17
-2.08
-3.06
-4.40
-6.30
-8.75
-11.44
-13.94
-15.86
-17.06
-17.74
-18.36
-19.46
-21.47
-24.42
-27.92
-31.20
-33.20
-32.93
-29.73
-23.55
-15.00
-5.24
4.37
12.62
18.78
22.65
24.53
24.90
24.28
23.01
21.29
19.28
17.11
14.98
13.07
11.45
10.12
8.97
7.87
6.77
5.64
4.51
3.41
2.33
1.29
0.29
-0.62
-1.43
-2.18
-2.98
-3.98
-5.29
-6.88
-8.62
-10.32
-11.78
-12.91
-13.76
-14.49
-15.36
-16.64
-18.54
-21.15
-24.28
-27.41
-29.73
-30.28
-28.35
-23.70
-16.78
-8.58
-0.36
6.83
12.33
15.99
17.97
18.58
18.13
16.85
14.98
12.79
10.60
8.76
7.52
6.98
7.07
7.52
7.94
7.97
7.43
6.41
5.19
4.10
3.32
2.72
1.98
0.71
-1.23
-3.69
-6.32
-8.71
-10.61
-11.97
-12.97
-13.91
-15.09
-16.74
-19.02
-21.95
-25.36
-28.81
-31.61
-32.92
-32.04
-28.58
-22.69
-15.01
-6.52
1.70
8.71
13.98
17.32
18.87
18.90
17.78
15.82
13.33
10.72
8.34
6.49
5.29
4.68
4.37
4.03
3.44
2.53
1.44
0.34
-0.65
-1.54
-2.48
-3.64
-5.17
-7.08
-9.22
-11.38
-13.34
-14.98
-16.36
-17.70
-19.38
-21.79
-25.17
-29.34
-33.63
-36.91
-37.90
-35.59
-29.66
-20.67
-9.89
1.05
10.72
18.19
23.20
25.94
26.81
26.19
24.42
21.84
18.79
15.70
12.88
10.46
8.41
6.56
4.76
2.99
1.32
-0.13
-1.36
-2.49
-3.75
-5.38
-7.42
-9.79
-12.26
-14.61
-16.73
-18.65
-20.55
-22.69
-25.36
-28.80
-33.08
-37.91
-42.50
-45.64
-45.93
-42.27
-34.37
-22.92
-9.47
4.04
15.91
25.07
31.22
34.62
35.78
35.20
33.32
30.57
27.38
24.17
21.32
18.93
16.90
14.98
12.95
10.78
8.64
6.77
5.32
4.18
2.98
1.23
-1.40
-4.97
-9.18
-13.57
-17.70
-21.31
-24.38
-27.17
-30.09
-33.62
-38.19
-43.88
-50.13
-55.60
-58.39
-56.62
-49.18
-36.37
-19.91
-2.42
13.53
26.18
35.02
40.50
43.50
44.74
44.55
43.04
40.34
36.83
33.10
29.77
27.25
25.58
24.51
23.61
22.49
20.89
18.87
16.59
14.37
12.45
10.90
9.57
8.07
5.99
3.04
-0.78
-5.17
-9.61
-13.60
-16.86
-19.46
-21.78
-24.34
-27.62
-31.95
-37.42
-43.88
-50.77
-56.99
-60.94
-60.84
-55.34
-44.14
-28.36
-10.28
7.41
22.48
33.78
41.40
46.09
48.74
49.89
49.70
48.21
45.60
42.36
39.17
36.58
34.85
33.80
33.00
31.98
30.51
28.67
26.83
25.38
24.55
24.22
23.98
23.29
21.70
19.08
15.66
11.89
8.28
5.22
2.79
0.81
-1.16
-3.59
-6.79
-10.73
-15.11
-19.37
-22.99
-25.66
-27.40
-28.59
-29.77
-31.52
-34.34
-38.54
-44.15
-50.70
-57.10
-61.64
-62.34
-57.67
-47.11
-31.61
-13.34
4.97
20.96
33.23
41.62
46.70
49.37
50.33
49.93
48.36
45.84
42.80
39.69
37.00
34.94
33.49
32.39
31.34
30.15
28.80
27.43
26.19
25.16
24.24
23.19
21.77
19.84
17.43
14.72
11.93
9.22
6.66
4.21
1.84
-0.45
-2.64
-4.71
-6.75
-8.90
-11.34
-14.13
-17.23
-20.43
-23.42
-25.97
-28.00
-29.63
-31.22
-33.23
-36.17
-40.38
-45.88
-52.08
-57.72
-60.96
-59.89
-53.23
-40.95
-24.42
-6.14
11.13
25.21
35.09
40.94
43.61
44.14
43.29
41.50
39.06
36.26
33.49
31.11
29.34
28.21
27.56
27.14
26.77
26.30
25.66
24.85
23.84
22.66
21.29
19.69
17.79
15.54
12.97
10.21
7.46
4.93
2.73
0.85
-0.78
-2.32
-3.89
-5.61
-7.60
-9.95
-12.64
-15.56
-18.47
-21.06
-23.11
-24.59
-25.70
-26.77
-28.25
-30.56
-33.97
-38.51
-43.73
-48.60
-51.62
-51.23
-46.31
-36.76
-23.60
-8.72
5.76
18.19
27.68
34.18
38.07
39.80
39.73
38.11
35.24
31.64
27.93
24.71
22.37
20.97
20.25
19.85
19.42
18.79
17.98
17.19
16.56
16.16
15.82
15.24
14.04
12.04
9.23
5.94
2.60
-0.38
-2.73
-4.47
-5.86
-7.27
-9.02
-11.21
-13.75
-16.38
-18.78
-20.71
-22.08
-23.05
-23.97
-25.33
-27.61
-31.09
-35.61
-40.39
-44.17
-45.42
-42.90
-36.19
-25.82
-13.26
-0.36
11.17
20.26
26.51
30.09
31.44
30.96
29.06
26.18
22.84
19.62
17.01
15.21
14.15
13.58
13.17
12.77
12.37
12.03
11.82
11.72
11.58
11.21
10.43
9.16
7.39
5.23
2.83
0.38
-1.94
-4.01
-5.83
-7.51
-9.29
-11.35
-13.75
-16.30
-18.67
-20.51
-21.71
-22.41
-23.08
-24.29
-26.52
-29.93
-34.18
-38.42
-41.36
-41.59
-38.04
-30.44
-19.52
-6.93
5.35
15.64
23.04
27.56
29.81
30.57
30.40
29.57
28.17
26.31
24.19
22.08
20.21
18.68
17.40
16.25
15.06
13.75
12.35
11.00
9.85
8.97
8.26
7.50
6.44
4.94
3.06
1.04
-0.85
-2.49
-3.91
-5.30
-6.89
-8.75
-10.79
-12.79
-14.58
-16.07
-17.36
-18.60
-19.99
-21.69
-23.82
-26.40
-29.23
-31.83
-33.36
-32.84
-29.57
-23.37
-14.85
-5.30
3.81
11.28
16.50
19.50
20.75
20.80
20.09
18.92
17.47
15.94
14.57
13.56
13.00
12.85
12.92
13.04
13.06
12.91
12.63
12.29
11.93
11.51
10.92
9.97
8.55
6.65
4.42
2.17
0.22
-1.24
-2.24
-3.07
-4.11
-5.64
-7.72
-10.16
-12.58
-14.71
-16.46
-18.06
-19.92
-22.51
-26.10
-30.65
-35.67
-40.17
-42.95
-42.83
-39.06
-31.67
-21.56
-10.25
0.59
9.62
16.20
20.33
22.46
23.17
22.98
22.24
21.24
20.23
19.41
18.83
18.40
17.90
17.14
16.01
14.59
13.10
11.76
10.75
10.11
9.70
9.32
8.70
7.66
6.09
4.11
1.96
-0.06
-1.74
-3.04
-4.19
-5.50
-7.26
-9.55
-12.16
-14.77
-17.05
-18.84
-20.24
-21.56
-23.18
-25.45
-28.51
-32.25
-36.18
-39.40
-40.75
-39.15
-33.97
-25.45
-14.68
-3.32
6.94
14.92
20.22
23.18
24.44
24.61
24.11
23.12
21.84
20.53
19.47
18.90
18.76
18.78
18.58
17.83
16.51
14.79
13.04
11.56
10.52
9.86
9.36
8.74
7.75
6.31
4.50
2.54
0.64
-1.02
-2.47
-3.88
-5.46
-7.44
-9.81
-12.39
-14.87
-16.95
-18.51
-19.69
-20.85
-22.46
-24.92
-28.41
-32.76
-37.35
-41.17
-43.01
-41.72
-36.67
-28.02
-16.80
-4.66
6.64
15.74
22.06
25.72
27.32
27.49
26.70
25.18
23.13
20.86
18.82
17.39
16.75
16.71
16.80
16.53
15.60
14.07
12.32
10.85
9.99
9.84
10.18
10.59
10.64
10.00
8.62
6.64
4.40
2.30
0.59
-0.66
-1.67
-2.81
-4.40
-6.54
-9.07
-11.62
-13.84
-15.52
-16.81
-18.11
-19.88
-22.48
-26.02
-30.30
-34.77
-38.57
-40.60
-39.84
-35.57
-27.80
-17.33
-5.67
5.46
14.59
20.95
24.49
25.78
25.61
24.66
23.43
22.19
21.08
20.22
19.66
19.37
19.21
19.00
18.51
17.62
16.35
14.84
13.24
11.72
10.33
9.02
7.69
6.22
4.58
2.86
1.20
-0.27
-1.51
-2.68
-4.01
-5.71
-7.88
-10.42
-13.04
-15.43
-17.37
-18.84
-20.07
-21.41
-23.26
-25.90
-29.31
-33.05
-36.24
-37.67
-36.16
-31.03
-22.43
-11.36
0.49
11.39
20.03
25.83
28.89
29.75
29.05
27.36
25.06
22.49
19.94
17.67
15.85
14.54
13.72
13.29
13.12
13.01
12.75
12.18
11.22
9.87
8.27
6.57
4.91
3.34
1.81
0.28
-1.38
-3.24
-5.36
-7.73
-10.28
-12.86
-15.30
-17.44
-19.24
-20.83
-22.52
-24.69
-27.67
-31.46
-35.70
-39.52
-41.75
-41.23
-37.19
-29.61
-19.24
-7.45
4.13
14.07
21.43
25.90
27.73
27.47
25.82
23.37
20.63
17.88
15.36
13.22
11.57
10.54
10.13
10.19
10.39
10.33
9.67
8.33
6.50
4.61
3.09
2.13
1.57
0.98
-0.14
-2.13
-5.01
-8.47
-12.07
-15.38
-18.22
-20.62
-22.83
-25.21
-28.13
-31.94
-36.80
-42.55
-48.52
-53.49
-55.89
-54.24
-47.72
-36.57
-22.07
-6.27
8.69
21.15
30.27
36.02
38.90
39.58
38.69
36.68
33.91
30.64
27.18
23.88
21.04
18.93
17.63
17.01
16.73
16.41
15.71
14.52
12.93
11.14
9.36
7.63
5.85
3.80
1.27
-1.87
-5.59
-9.74
-14.01
-18.08
-21.68
-24.67
-27.15
-29.42
-31.94
-35.15
-39.49
-45.05
-51.55
-58.04
-63.01
-64.59
-61.21
-52.15
-37.94
-20.42
-2.05
14.82
28.58
38.65
45.25
48.93
50.24
49.56
47.21
43.67
39.58
35.61
32.27
29.69
27.63
25.75
23.76
21.72
19.97
18.96
18.95
19.82
21.04
21.84
21.52
19.75
16.69
12.90
9.08
5.79
3.15
0.89
-1.53
-4.58
-8.45
-12.96
-17.62
-21.90
-25.42
-28.13
-30.34
-32.60
-35.56
-39.83
-45.74
-53.10
-60.95
-67.54
-70.67
-68.37
-59.67
-45.06
-26.49
-6.71
11.56
26.48
37.39
44.59
48.90
51.13
51.80
51.21
49.62
47.36
44.88
42.62
40.82
39.53
38.53
37.57
36.49
35.33
34.27
33.53
33.14
32.89
32.37
31.23
29.28
26.66
23.70
20.79
18.13
15.67
13.17
10.39
7.23
3.78
0.29
-2.98
-5.85
-8.33
-10.66
-13.12
-15.94
-19.25
-22.92
-26.68
-30.18
-33.22
-35.74
-37.94
-40.21
-43.03
-46.90
-52.11
-58.46
-65.07
-70.30
-72.04
-68.44
-58.59
-43.06
-23.84
-3.73
14.60
29.36
39.94
46.75
50.58
52.22
52.18
50.79
48.41
45.55
42.77
40.54
39.02
38.04
37.24
36.23
34.85
33.23
31.69
30.61
30.19
30.33
30.59
30.40
29.28
27.00
23.74
19.99
16.35
13.32
11.12
9.62
8.47
7.24
5.60
3.43
0.88
-1.74
-4.06
-5.82
-7.01
-7.85
-8.79
-10.23
-12.41
-15.28
-18.55
-21.80
-24.72
-27.19
-29.36
-31.56
-34.16
-37.49
-41.79
-47.13
-53.21
-59.26
-63.87
-65.32
-62.02
-53.17
-39.27
-22.10
-4.16
12.08
25.00
34.08
39.76
42.87
44.16
44.03
42.68
40.32
37.37
34.38
31.82
29.90
28.53
27.39
26.21
24.89
23.58
22.57
22.08
22.12
22.50
22.81
22.65
21.71
19.98
17.64
15.11
12.78
10.90
9.47
8.24
6.84
5.00
2.62
-0.11
-2.88
-5.36
-7.35
-8.89
-10.17
-11.44
-12.95
-14.73
-16.71
-18.67
-20.46
-21.99
-23.33
-24.70
-26.33
-28.46
-31.25
-34.78
-38.94
-43.36
-47.24
-49.47
-48.81
-44.29
-35.70
-23.75
-10.02
3.53
15.14
23.78
29.30
32.16
33.15
32.91
31.81
30.04
27.78
25.32
23.05
21.33
20.27
19.77
19.50
19.13
18.45
17.51
16.49
15.63
15.02
14.60
14.14
13.41
12.28
10.80
9.12
7.37
5.66
3.98
2.33
0.70
-0.88
-2.34
-3.71
-5.13
-6.75
-8.68
-10.90
-13.25
-15.51
-17.52
-19.22
-20.66
-21.97
-23.28
-24.82
-26.81
-29.44
-32.73
-36.37
-39.62
-41.39
-40.60
-36.52
-29.18
-19.37
-8.44
2.14
11.22
18.17
22.91
25.68
26.87
26.75
25.64
23.79
21.56
19.30
17.24
15.54
14.15
12.97
11.82
10.66
9.51
8.50
7.75
7.32
7.13
7.00
6.69
6.00
4.84
3.25
1.41
-0.45
-2.14
-3.59
-4.89
-6.25
-7.94
-10.09
-12.65
-15.32
-17.72
-19.52
-20.65
-21.34
-22.01
-23.18
-25.21
-28.29
-32.24
-36.52
-40.20
-42.12
-41.19
-36.76
-28.94
-18.63
-7.35
3.28
12.05
18.35
22.27
24.24
24.76
24.21
22.85
20.89
18.59
16.29
14.33
12.91
12.00
11.40
10.83
10.14
9.28
8.37
7.51
6.69
5.81
4.67
3.10
1.10
-1.18
-3.47
-5.51
-7.17
-8.51
-9.76
-11.22
-13.07
-15.32
-17.81
-20.30
-22.58
-24.60
-26.49
-28.51
-31.01
-34.29
-38.42
-43.04
-47.35
-50.06
-49.79
-45.59
-37.27
-25.65
-12.29
1.00
12.76
22.10
28.81
33.06
35.16
35.45
34.26
31.97
29.03
25.89
22.85
20.04
17.47
15.13
13.05
11.38
10.30
9.90
10.11
10.61
10.97
10.78
9.75
7.92
5.50
2.85
0.23
-2.32
-4.97
-7.95
-11.40
-15.26
-19.27
-23.12
-26.53
-29.43
-31.91
-34.25
-36.87
-40.16
-44.44
-49.67
-55.26
-60.01
-62.33
-60.64
-53.98
-42.42
-27.14
-10.05
6.69
21.33
32.79
40.79
45.62
47.92
48.33
47.40
45.59
43.25
40.65
38.02
35.48
33.07
30.80
28.66
26.71
25.04
23.72
22.74
21.96
21.16
20.05
18.45
16.32
13.74
10.85
7.73
4.43
0.91
-2.84
-6.79
-10.78
-14.60
-18.05
-20.99
-23.51
-25.85
-28.35
-31.42
-35.39
-40.38
-46.11
-51.66
-55.56
-56.10
-51.85
-42.32
-28.26
-11.56
5.34
20.17
31.53
39.11
43.37
45.16
45.24
44.18
42.30
39.90
37.28
34.70
32.31
30.10
27.96
25.74
23.42
21.14
19.08
17.45
16.30
15.50
14.74
13.68
12.05
9.84
7.27
4.67
2.35
0.35
-1.53
-3.71
-6.54
-10.12
-14.21
-18.26
-21.75
-24.41
-26.37
-28.08
-30.20
-33.30
-37.75
-43.44
-49.72
-55.40
-58.87
-58.47
-53.04
-42.41
-27.60
-10.60
6.17
20.63
31.56
38.65
42.33
43.36
42.49
40.33
37.41
34.22
31.27
28.94
27.44
26.61
26.11
25.47
24.37
22.81
21.04
19.46
18.39
17.86
17.50
16.76
15.09
12.21
8.31
3.93
-0.24
-3.66
-6.16
-7.97
-9.57
-11.54
-14.24
-17.67
-21.49
-25.16
-28.16
-30.27
-31.65
-32.80
-34.42
-37.14
-41.37
-47.10
-53.71
-59.96
-64.01
-63.93
-58.24
-46.57
-30.05
-11.04
7.55
23.21
34.56
41.54
44.99
46.10
45.79
44.59
42.71
40.34
37.78
35.42
33.56
32.29
31.43
30.66
29.64
28.24
26.56
24.88
23.49
22.57
22.02
21.46
20.45
18.57
15.68
11.98
7.98
4.22
1.14
-1.18
-3.02
-4.87
-7.27
-10.52
-14.57
-19.06
-23.40
-27.04
-29.67
-31.34
-32.43
-33.57
-35.41
-38.52
-43.17
-49.24
-55.96
-61.99
-65.48
-64.58
-58.04
-45.69
-28.75
-9.50
9.37
25.56
37.73
45.64
49.87
51.30
50.76
48.85
45.96
42.50
38.95
35.77
33.30
31.60
30.43
29.39
28.17
26.64
24.96
23.48
22.47
22.00
21.79
21.34
20.16
17.99
14.91
11.33
7.78
4.72
2.36
0.60
-0.90
-2.57
-4.77
-7.66
-11.16
-14.95
-18.61
-21.68
-23.90
-25.26
-26.06
-26.79
-28.09
-30.52
-34.38
-39.57
-45.39
-50.59
-53.55
-52.70
-47.04
-36.55
-22.32
-6.29
9.38
22.79
32.88
39.35
42.56
43.15
41.83
39.21
35.84
32.20
28.73
25.76
23.39
21.59
20.16
18.94
17.81
16.79
15.96
15.39
15.06
14.79
14.31
13.35
11.74
9.48
6.77
3.90
1.09
-1.53
-4.03
-6.59
-9.35
-12.31
-15.30
-18.07
-20.43
-22.33
-23.89
-25.43
-27.31
-29.89
-33.42
-37.85
-42.75
-47.22
-49.95
-49.55
-45.05
-36.27
-24.07
-10.12
3.58
15.33
24.08
29.62
32.34
32.91
31.96
30.01
27.42
24.53
21.68
19.14
17.09
15.51
14.27
13.20
12.19
11.21
10.25
9.26
8.17
6.82
5.16
3.26
1.29
-0.55
-2.17
-3.68
-5.32
-7.36
-9.95
-13.09
-16.57
-20.15
-23.64
-26.94
-30.16
-33.48
-37.16
-41.51
-46.79
-53.03
-59.75
-65.82
-69.52
-69.04
-63.09
-51.52
-35.53
-17.30
0.65
16.25
28.35
36.74
41.85
44.23
44.33
42.49
39.03
34.47
29.50
24.89
21.24
18.80
17.55
17.17
17.32
17.68
18.02
18.23
18.19
17.84
17.10
15.86
14.01
11.40
7.85
3.24
-2.34
-8.55
-14.84
-20.57
-25.32
-29.02
-31.99
-34.87
-38.36
-43.05
-49.23
-56.74
-64.90
-72.42
-77.51
-78.24
-73.10
-61.59
-44.56
-24.04
-2.77
16.75
32.81
44.74
52.74
57.38
59.21
58.59
55.88
51.55
46.33
41.06
36.48
32.97
30.48
28.66
27.09
25.51
23.93
22.50
21.43
20.72
20.18
19.43
17.97
15.38
11.44
6.19
-0.06
-6.75
-13.31
-19.23
-24.33
-28.73
-32.87
-37.33
-42.71
-49.41
-57.53
-66.61
-75.46
-82.20
-84.60
-80.78
-69.90
-52.67
-31.24
-8.53
12.61
30.24
43.56
52.75
58.38
61.11
61.37
59.55
56.14
51.81
47.29
43.19
39.86
37.35
35.50
34.08
32.87
31.73
30.55
29.26
27.81
26.15
24.25
22.03
19.28
15.77
11.31
5.87
-0.35
-6.91
-13.29
-19.07
-24.05
-28.39
-32.45
-36.79
-41.96
-48.44
-56.53
-66.07
-76.26
-85.46
-91.39
-91.68
-84.64
-70.02
-49.25
-25.09
-0.78
20.91
38.29
50.94
59.31
64.13
66.13
65.86
63.80
60.51
56.63
52.77
49.37
46.54
44.20
42.16
40.30
38.60
37.18
36.11
35.33
34.60
33.55
31.83
29.24
25.81
21.82
17.62
13.49
9.49
5.42
0.97
-4.07
-9.70
-15.66
-21.52
-26.93
-31.79
-36.30
-40.93
-46.22
-52.65
-60.38
-69.05
-77.50
-83.92
-86.12
-82.26
-71.56
-54.73
-33.90
-11.87
8.65
25.83
39.01
48.38
54.53
58.07
59.39
58.78
56.66
53.58
50.26
47.28
44.99
43.46
42.48
41.74
41.01
40.19
39.31
38.46
37.64
36.76
35.61
33.93
31.59
28.54
24.88
20.78
16.46
12.04
7.57
3.10
-1.25
-5.37
-9.19
-12.75
-16.31
-20.24
-24.81
-30.03
-35.59
-40.94
-45.57
-49.26
-52.20
-54.99
-58.39
-63.12
-69.67
-77.97
-87.17
-95.57
-100.78
-100.26
-92.17
-76.21
-53.88
-28.16
-2.56
19.96
37.69
50.29
58.41
63.00
64.89
64.66
62.80
59.91
56.75
53.96
51.92
50.64
49.76
48.92
47.90
46.72
45.57
44.66
43.98
43.36
42.47
41.01
38.85
36.00
32.62
28.91
24.99
20.96
16.90
12.85
8.93
5.25
1.88
-1.18
-4.07
-7.08
-10.49
-14.49
-19.06
-23.94
-28.75
-33.11
-36.81
-39.90
-42.68
-45.65
-49.41
-54.47
-61.03
-68.66
-76.13
-81.49
-82.52
-77.44
-65.68
-48.18
-27.26
-5.85
13.42
28.87
39.98
47.13
51.04
52.47
51.95
49.97
47.07
43.89
40.99
38.73
37.15
36.00
34.98
33.87
32.70
31.62
30.80
30.31
29.98
29.51
28.52
26.71
23.98
20.51
16.68
12.92
9.55
6.68
4.15
1.74
-0.74
-3.29
-5.76
-7.96
-9.81
-11.51
-13.40
-15.86
-19.13
-23.10
-27.45
-31.66
-35.33
-38.27
-40.62
-42.75
-45.21
-48.54
-53.13
-58.96
-65.47
-71.44
-75.12
-74.65
-68.59
-56.56
-39.48
-19.46
0.84
18.96
33.24
43.09
48.84
51.28
51.27
49.52
46.60
43.03
39.37
36.17
33.85
32.56
32.13
32.13
32.10
31.68
30.80
29.62
28.44
27.48
26.72
25.98
24.91
23.22
20.79
17.69
14.20
10.59
7.12
3.95
1.11
-1.46
-3.85
-6.22
-8.68
-11.29
-13.98
-16.60
-18.97
-20.97
-22.63
-24.13
-25.76
-27.84
-30.65
-34.39
-39.03
-44.30
-49.46
-53.42
-54.84
-52.51
-45.90
-35.36
-22.20
-8.23
4.71
15.33
23.05
27.96
30.49
31.15
30.38
28.55
26.06
23.37
20.95
19.12
18.00
17.47
17.25
17.05
16.69
16.15
15.53
15.01
14.66
14.41
14.02
13.18
11.68
9.49
6.80
3.99
1.41
-0.78
-2.69
-4.58
-6.76
-9.37
-12.30
-15.25
-17.84
-19.87
-21.35
-22.55
-23.92
-25.94
-28.94
-32.87
-37.14
-40.71
-42.26
-40.65
-35.34
-26.71
-15.92
-4.61
5.66
13.83
19.51
22.87
24.34
24.40
23.36
21.54
19.17
16.57
14.01
11.69
9.66
7.88
6.29
4.92
3.88
3.32
3.26
3.57
3.94
4.01
3.56
2.53
1.10
-0.49
-2.11
-3.76
-5.61
-7.84
-10.52
-13.51
-16.57
-19.39
-21.82
-23.85
-25.70
-27.67
-30.04
-33.04
-36.75
-41.00
-45.27
-48.67
-50.05
-48.26
-42.63
-33.23
-21.05
-7.71
5.01
15.69
23.60
28.67
31.33
32.08
31.37
29.48
26.71
23.37
19.86
16.63
13.99
12.09
10.89
10.21
9.77
9.35
8.75
7.83
6.56
4.98
3.23
1.38
-0.51
-2.50
-4.71
-7.35
-10.52
-14.18
-18.15
-22.13
-25.86
-29.21
-32.20
-35.06
-38.13
-41.75
-46.28
-51.88
-58.31
-64.81
-70.05
-72.36
-70.21
-62.79
-50.40
-34.45
-17.02
-0.29
14.10
25.32
33.30
38.46
41.32
42.32
41.71
39.75
36.71
33.03
29.23
25.85
23.22
21.40
20.16
19.07
17.75
15.99
13.86
11.64
9.57
7.69
5.80
3.45
0.15
-4.41
-10.16
-16.69
-23.31
-29.36
-34.40
-38.41
-41.78
-45.11
-49.18
-54.63
-61.84
-70.65
-80.18
-88.71
-93.91
-93.38
-85.49
-70.04
-48.54
-23.87
0.59
21.99
38.67
50.30
57.43
60.97
61.64
59.95
56.37
51.52
46.21
41.38
37.71
35.42
34.28
33.67
32.98
31.76
29.92
27.70
25.42
23.39
21.64
19.92
17.72
14.47
9.76
3.53
-3.80
-11.51
-18.78
-25.04
-30.17
-34.53
-38.79
-43.75
-50.03
-58.00
-67.62
-78.22
-88.30
-95.64
-97.65
-92.10
-78.08
-56.48
-29.90
-1.95
23.91
45.24
60.99
71.26
76.81
78.52
77.21
73.65
68.64
63.04
57.64
53.04
49.49
47.04
45.52
44.68
44.31
44.18
44.01
43.54
42.48
40.62
37.89
34.35
30.18
25.57
20.64
15.37
9.63
3.35
-3.44
-10.47
-17.36
-23.73
-29.32
-34.12
-38.43
-42.80
-48.01
-54.82
-63.69
-74.32
-85.33
-94.24
-98.05
-94.15
-81.34
-60.45
-34.22
-6.38
19.47
40.89
56.92
67.75
74.11
76.74
76.21
73.05
68.00
62.10
56.48
52.07
49.29
47.99
47.57
47.33
46.72
45.59
44.13
42.75
41.78
41.18
40.48
38.91
35.78
30.84
24.49
17.64
11.30
6.08
1.89
-2.04
-6.69
-12.80
-20.45
-29.02
-37.50
-44.98
-50.99
-55.72
-59.88
-64.45
-70.37
-78.34
-88.57
-100.47
-112.47
-121.96
-125.77
-121.07
-106.39
-82.38
-51.78
-18.68
12.77
39.43
59.78
73.72
81.99
85.53
85.20
81.74
76.09
69.41
63.03
58.08
55.17
54.22
54.55
55.28
55.66
55.40
54.66
53.87
53.33
53.00
52.39
50.81
47.63
42.62
36.13
28.93
21.90
15.73
10.55
6.00
1.40
-3.90
-10.28
-17.55
-25.20
-32.56
-39.11
-44.72
-49.62
-54.40
-59.77
-66.48
-75.03
-85.38
-96.67
-107.07
-113.90
-114.33
-106.27
-89.18
-64.48
-35.18
-5.07
22.39
44.86
61.42
72.19
77.87
79.28
77.18
72.39
65.86
58.72
52.12
46.90
43.42
41.58
40.91
40.93
41.28
41.79
42.39
42.88
42.90
41.97
39.68
35.87
30.72
24.68
18.30
11.98
5.80
-0.43
-7.05
-14.26
-22.02
-29.99
-37.65
-44.55
-50.54
-55.85
-61.13
-67.24
-74.99
-84.79
-96.18
-107.62
-116.51
-119.77
-114.77
-100.32
-77.25
-48.24
-17.03
12.70
38.30
58.43
72.92
82.18
86.82
87.46
84.79
79.77
73.54
67.30
61.98
58.13
55.83
54.85
54.78
55.21
55.80
56.29
56.41
55.86
54.38
51.70
47.82
42.90
37.34
31.52
25.69
19.82
13.74
7.21
0.15
-7.30
-14.79
-21.98
-28.64
-34.78
-40.62
-46.61
-53.28
-61.07
-70.03
-79.55
-88.10
-93.42
-93.10
-85.43
-70.07
-48.45
-23.31
2.05
24.73
42.90
55.98
64.27
68.55
69.63
68.16
64.79
60.13
54.90
49.79
45.34
41.78
39.08
37.03
35.44
34.18
33.25
32.60
32.07
31.32
29.91
27.48
23.89
19.29
14.12
8.84
3.76
-1.02
-5.71
-10.60
-15.93
-21.70
-27.71
-33.56
-38.95
-43.74
-48.11
-52.52
-57.54
-63.70
-71.18
-79.53
-87.51
-93.17
-94.31
-89.10
-76.82
-58.28
-35.66
-11.84
10.37
29.03
43.32
53.32
59.63
62.86
63.55
62.16
59.31
55.67
51.98
48.75
46.15
43.97
41.90
39.70
37.39
35.21
33.47
32.29
31.52
30.73
29.36
27.01
23.55
19.25
14.61
10.17
6.27
2.88
-0.33
-3.81
-8.01
-13.04
-18.73
-24.64
-30.29
-35.26
-39.40
-42.86
-46.09
-49.78
-54.63
-61.14
-69.13
-77.58
-84.61
-87.92
-85.49
-76.36
-61.05
-41.43
-20.11
0.28
17.81
31.54
41.33
47.58
50.84
51.61
50.39
47.72
44.23
40.62
37.48
35.13
33.54
32.41
31.33
29.95
28.17
26.11
24.07
22.33
21.00
19.98
18.90
17.32
14.87
11.42
7.12
2.39
-2.24
-6.40
-9.91
-12.95
-15.93
-19.28
-23.35
-28.17
-33.48
-38.81
-43.63
-47.59
-50.62
-53.03
-55.42
-58.52
-63.02
-69.28
-77.18
-85.80
-93.45
-97.87
-96.80
-88.66
-73.23
-51.91
-27.40
-2.96
18.59
35.53
47.46
55.00
59.16
60.85
60.69
59.06
56.34
53.03
49.67
46.72
44.39
42.55
40.94
39.31
37.55
35.77
34.14
32.75
31.55
30.35
28.88
27.00
24.62
21.78
18.57
15.06
11.31
7.37
3.32
-0.74
-4.70
-8.53
-12.27
-16.07
-20.08
-24.42
-29.08
-33.86
-38.50
-42.71
-46.29
-49.29
-51.99
-54.83
-58.42
-63.28
-69.68
-77.31
-85.04
-90.92
-92.59
-87.99
-76.16
-57.73
-34.86
-10.59
12.06
30.93
45.08
54.61
60.21
62.71
62.83
61.14
58.22
54.65
51.03
47.84
45.34
43.57
42.36
41.42
40.47
39.30
37.84
36.14
34.33
32.54
30.82
29.01
26.89
24.21
20.84
16.85
12.45
7.95
3.70
-0.08
-3.31
-6.10
-8.73
-11.52
-14.76
-18.53
-22.65
-26.76
-30.49
-33.56
-35.99
-37.98
-39.89
-42.12
-45.05
-48.98
-54.05
-59.95
-65.71
-69.72
-70.02
-65.01
-54.16
-38.29
-19.46
-0.27
16.96
30.78
40.74
47.15
50.57
51.55
50.56
48.06
44.60
40.83
37.30
34.33
31.93
29.92
28.08
26.30
24.59
23.08
21.85
20.94
20.30
19.75
19.09
18.04
16.35
13.86
10.63
6.92
3.23
0.02
-2.37
-3.95
-5.09
-6.33
-8.16
-10.82
-14.17
-17.77
-21.14
-23.95
-26.17
-28.04
-29.98
-32.37
-35.50
-39.48
-44.17
-49.09
-53.30
-55.48
-54.26
-48.72
-38.80
-25.53
-10.69
3.71
16.02
25.37
31.61
35.15
36.48
36.10
34.40
31.73
28.47
25.04
21.79
18.94
16.60
14.72
13.25
12.08
11.22
10.67
10.49
10.63
10.95
11.20
11.10
10.47
9.24
7.50
5.36
2.91
0.15
-2.95
-6.38
-10.03
-13.67
-17.06
-19.94
-22.24
-24.06
-25.66
-27.40
-29.66
-32.68
-36.46
-40.55
-44.09
-45.89
-44.81
-40.11
-31.84
-20.87
-8.70
3.00
12.88
20.23
24.98
27.51
28.36
27.96
26.59
24.45
21.77
18.81
15.93
13.39
11.36
9.83
8.68
7.77
6.99
6.25
5.50
4.70
3.79
2.68
1.31
-0.37
-2.41
-4.85
-7.72
-10.96
-14.42
-17.87
-21.10
-23.97
-26.51
-28.86
-31.26
-33.98
-37.29
-41.39
-46.29
-51.62
-56.48
-59.54
-59.27
-54.57
-45.20
-32.03
-16.78
-1.48
12.13
23.04
30.95
36.02
38.62
39.07
37.71
34.89
31.14
27.06
23.25
20.16
17.97
16.57
15.66
14.86
13.85
12.57
11.15
9.86
8.89
8.21
7.51
6.31
4.17
0.86
-3.51
-8.56
-13.76
-18.65
-22.94
-26.59
-29.73
-32.65
-35.78
-39.56
-44.39
-50.39
-57.08
-63.26
-67.14
-66.81
-60.96
-49.45
-33.52
-15.35
2.57
18.28
30.70
39.69
45.60
48.90
49.92
48.88
46.02
41.76
36.76
31.69
27.20
23.65
21.11
19.37
18.04
16.69
15.04
13.07
10.91
8.81
6.95
5.25
3.42
1.04
-2.28
-6.64
-11.81
-17.36
-22.82
-27.84
-32.37
-36.54
-40.70
-45.25
-50.64
-57.27
-65.30
-74.41
-83.42
-90.40
-92.96
-89.04
-77.72
-59.71
-37.23
-13.33
9.05
27.85
42.25
52.42
59.03
62.76
64.12
63.37
60.81
56.90
52.24
47.50
43.22
39.65
36.78
34.38
32.21
30.08
27.90
25.66
23.35
20.92
18.29
15.34
11.93
7.95
3.27
-2.20
-8.44
-15.31
-22.51
-29.69
-36.51
-42.80
-48.61
-54.18
-59.97
-66.61
-74.72
-84.70
-96.32
-108.32
-118.31
-123.18
-119.96
-107.00
-84.71
-55.62
-23.65
7.13
33.63
54.31
69.07
78.65
83.99
85.84
84.77
81.43
76.69
71.65
67.30
64.26
62.53
61.63
60.83
59.63
57.93
56.11
54.68
53.91
53.55
52.89
51.02
47.28
41.58
34.47
26.94
19.94
13.99
9.01
4.31
-0.99
-7.59
-15.61
-24.52
-33.38
-41.28
-47.74
-52.87
-57.40
-62.37
-68.86
-77.66
-88.94
-101.90
-114.49
-123.65
-125.83
-118.22
-99.83
-72.14
-38.77
-4.40
26.72
51.89
70.31
82.60
89.97
93.50
93.92
91.79
87.77
82.80
77.91
73.93
71.19
69.50
68.31
67.10
65.58
63.83
62.15
60.83
59.94
59.25
58.33
56.71
54.04
50.20
45.29
39.57
33.37
27.01
20.75
14.81
9.29
4.18
-0.67
-5.57
-10.85
-16.72
-23.19
-29.96
-36.57
-42.56
-47.69
-52.05
-56.09
-60.43
-65.84
-72.94
-82.01
-92.66
-103.54
-112.32
-116.03
-112.00
-98.76
-76.79
-48.60
-17.96
11.26
36.13
55.25
68.60
76.87
80.93
81.47
79.07
74.42
68.52
62.53
57.51
54.09
52.30
51.66
51.44
51.04
50.22
49.14
48.16
47.59
47.41
47.22
46.32
44.08
40.18
34.80
28.61
22.41
16.85
12.17
8.08
3.98
-0.77
-6.51
-13.17
-20.28
-27.22
-33.46
-38.78
-43.28
-47.36
-51.58
-56.53
-62.73
-70.43
-79.31
-88.27
-95.39
-98.33
-94.98
-84.30
-66.74
-44.26
-19.69
4.12
24.96
41.65
53.84
61.73
65.75
66.37
64.19
59.99
54.70
49.27
44.47
40.77
38.27
36.79
36.02
35.60
35.33
35.09
34.78
34.29
33.41
31.90
29.59
26.49
22.82
18.92
15.12
11.56
8.09
4.36
0.04
-5.02
-10.65
-16.45
-21.96
-26.90
-31.28
-35.46
-40.01
-45.51
-52.29
-60.18
-68.34
-75.20
-78.75
-77.09
-69.06
-54.78
-35.75
-14.51
6.18
24.07
37.90
47.39
52.97
55.35
55.18
53.04
49.49
45.14
40.65
36.54
33.14
30.50
28.48
26.87
25.51
24.30
23.27
22.41
21.65
20.80
19.63
17.89
15.45
12.30
8.55
4.30
-0.32
-5.27
-10.47
-15.79
-21.06
-26.05
-30.59
-34.64
-38.32
-41.87
-45.67
-50.12
-55.54
-61.98
-68.96
-75.30
-79.22
-78.77
-72.50
-60.11
-42.72
-22.57
-2.36
15.60
29.89
40.13
46.67
50.13
51.12
50.10
47.51
43.92
39.97
36.29
33.27
31.01
29.38
28.08
26.92
25.81
24.76
23.80
22.86
21.71
20.11
17.82
14.80
11.12
7.00
2.63
-1.88
-6.57
-11.53
-16.89
-22.60
-28.48
-34.21
-39.40
-43.82
-47.44
-50.55
-53.78
-57.89
-63.56
-70.91
-79.14
-86.49
-90.47
-88.67
-79.61
-63.40
-41.85
-17.90
5.32
25.38
41.01
52.00
58.82
62.10
62.40
60.26
56.34
51.49
46.65
42.57
39.56
37.46
35.80
34.11
32.15
30.04
28.15
26.82
26.12
25.78
25.19
23.66
20.72
16.38
11.12
5.70
0.83
-3.19
-6.61
-10.03
-14.14
-19.26
-25.23
-31.42
-37.09
-41.71
-45.26
-48.14
-51.11
-55.03
-60.56
-68.00
-76.92
-86.04
-93.22
-95.84
-91.66
-79.58
-60.29
-36.15
-10.51
13.32
33.02
47.60
57.25
62.75
64.97
64.61
62.27
58.56
54.28
50.24
47.00
44.77
43.28
42.01
40.45
38.33
35.79
33.21
31.03
29.52
28.55
27.70
26.34
23.92
20.19
15.35
9.98
4.80
0.40
-3.03
-5.76
-8.39
-11.64
-15.97
-21.42
-27.61
-33.82
-39.35
-43.74
-46.98
-49.45
-51.88
-55.15
-59.94
-66.55
-74.52
-82.45
-88.13
-89.08
-83.32
-70.18
-50.67
-27.31
-3.31
18.41
35.97
48.74
57.06
61.66
63.27
62.40
59.53
55.23
50.31
45.57
41.68
38.91
37.13
35.87
34.65
33.17
31.48
29.84
28.61
27.93
27.60
27.12
25.89
23.49
19.90
15.51
10.95
6.83
3.43
0.58
-2.18
-5.50
-9.82
-15.30
-21.63
-28.25
-34.48
-39.75
-43.87
-47.05
-49.87
-53.09
-57.49
-63.54
-71.19
-79.63
-87.17
-91.59
-90.58
-82.64
-67.59
-46.84
-23.03
0.81
22.05
39.11
51.46
59.39
63.44
64.23
62.29
58.25
52.92
47.24
42.09
38.05
35.25
33.46
32.25
31.23
30.27
29.48
29.07
29.17
29.62
29.97
29.63
28.05
25.03
20.77
15.83
10.87
6.38
2.44
-1.22
-5.09
-9.57
-14.78
-20.48
-26.21
-31.50
-36.05
-39.86
-43.21
-46.61
-50.67
-55.94
-62.64
-70.34
-77.75
-82.82
-83.24
-77.29
-64.52
-46.09
-24.46
-2.60
16.90
32.47
43.65
50.78
54.49
55.34
53.80
50.30
45.43
39.92
34.53
29.86
26.20
23.60
21.88
20.79
20.11
19.66
19.23
18.64
17.71
16.30
14.35
11.95
9.20
6.21
3.02
-0.46
-4.35
-8.76
-13.65
-18.89
-24.25
-29.52
-34.68
-39.81
-45.14
-50.95
-57.53
-65.02
-73.22
-81.34
-87.82
-90.57
-87.53
-77.42
-60.45
-38.42
-14.25
8.93
28.68
43.77
54.08
60.16
62.72
62.34
59.53
54.82
48.93
42.70
36.91
32.12
28.63
26.37
25.07
24.34
23.78
23.07
22.11
20.86
19.41
17.81
16.01
13.84
11.06
7.43
2.81
-2.75
-9.00
-15.51
-21.83
-27.57
-32.58
-37.02
-41.32
-46.11
-52.03
-59.58
-68.81
-79.05
-88.74
-95.47
-96.60
-90.08
-75.24
-53.29
-27.08
-0.19
24.12
43.78
58.14
67.59
72.96
74.97
74.14
70.88
65.75
59.55
53.15
47.35
42.62
39.10
36.63
34.93
33.72
32.72
31.68
30.36
28.59
26.29
23.46
20.14
16.31
11.92
6.84
0.93
-5.80
-13.18
-20.85
-28.38
-35.38
-41.68
-47.38
-52.83
-58.60
-65.42
-73.89
-84.32
-96.17
-107.82
-116.54
-119.08
-112.70
-96.27
-70.87
-39.69
-7.02
23.05
47.66
65.65
77.29
83.60
85.76
84.78
81.49
76.68
71.21
65.87
61.24
57.52
54.59
52.13
49.85
47.68
45.73
44.16
42.96
41.82
40.19
37.52
33.53
28.37
22.50
16.47
10.61
4.94
-0.85
-7.12
-14.04
-21.47
-28.99
-36.10
-42.49
-48.12
-53.32
-58.72
-65.12
-73.23
-83.38
-95.02
-106.42
-114.76
-116.76
-109.74
-92.76
-67.15
-36.30
-4.57
24.07
47.11
63.75
74.57
80.73
83.29
83.00
80.41
76.13
70.97
65.80
61.29
57.71
54.90
52.50
50.19
47.88
45.77
44.13
43.07
42.35
41.37
39.41
35.92
30.83
24.59
17.97
11.68
6.04
0.89
-4.33
-10.24
-17.13
-24.83
-32.77
-40.22
-46.61
-51.75
-55.97
-60.06
-65.09
-72.17
-81.80
-93.42
-105.08
-113.61
-115.47
-108.01
-90.52
-64.66
-34.03
-2.93
24.91
47.25
63.43
73.89
79.55
81.33
80.01
76.38
71.31
65.75
60.48
55.95
52.22
49.12
46.39
43.93
41.82
40.27
39.43
39.23
39.32
39.06
37.76
34.94
30.51
24.91
18.85
13.06
7.89
3.19
-1.61
-7.20
-13.98
-21.82
-30.06
-37.81
-44.39
-49.57
-53.75
-57.78
-62.71
-69.48
-78.45
-89.13
-99.86
-107.98
-110.32
-104.31
-88.89
-65.15
-36.18
-6.10
21.24
43.27
59.08
69.09
74.29
75.71
74.09
70.03
64.26
57.67
51.23
45.75
41.68
39.01
37.47
36.64
36.16
35.78
35.34
34.75
33.89
32.63
30.79
28.18
24.75
20.50
15.56
10.09
4.23
-1.98
-8.49
-15.23
-22.04
-28.65
-34.76
-40.26
-45.25
-50.17
-55.70
-62.58
-71.20
-81.25
-91.36
-99.12
-101.66
-96.57
-82.86
-61.49
-35.24
-7.80
17.36
37.95
53.08
63.00
68.46
70.16
68.62
64.29
57.89
50.47
43.26
37.37
33.42
31.39
30.66
30.32
29.55
27.93
25.54
22.87
20.49
18.69
17.33
15.79
13.24
9.02
2.96
-4.55
-12.68
-20.47
-27.26
-32.84
-37.51
-41.95
-46.96
-53.27
-61.39
-71.30
-82.29
-92.74
-100.26
-102.12
-96.16
-81.59
-59.43
-32.42
-4.13
22.03
43.73
59.94
70.72
76.60
78.13
75.77
70.07
61.93
52.68
43.82
36.66
31.87
29.33
28.29
27.71
26.74
25.03
22.82
20.63
18.93
17.72
16.48
14.31
10.37
4.28
-3.63
-12.47
-21.15
-28.83
-35.26
-40.73
-46.00
-51.95
-59.38
-68.81
-80.26
-93.03
-105.48
-115.00
-118.56
-113.51
-98.63
-74.75
-44.67
-12.39
18.15
44.05
63.96
77.87
86.44
90.40
90.29
86.53
79.77
71.08
61.86
53.52
47.06
42.82
40.45
39.13
37.95
36.34
34.19
31.87
29.89
28.52
27.56
26.30
23.79
19.20
12.27
3.39
-6.50
-16.29
-25.08
-32.54
-38.92
-44.86
-51.25
-58.88
-68.43
-80.12
-93.46
-106.94
-117.89
-123.01
-119.22
-104.85
-80.45
-48.82
-14.24
18.91
47.25
69.14
84.42
93.86
98.43
98.98
96.21
90.94
84.16
76.99
70.41
65.00
60.87
57.72
55.14
52.88
50.95
49.49
48.62
48.13
47.49
45.93
42.82
37.92
31.57
24.46
17.38
10.85
4.85
-1.05
-7.48
-14.94
-23.48
-32.70
-41.85
-50.20
-57.32
-63.26
-68.55
-74.12
-81.06
-90.21
-101.69
-114.43
-125.91
-132.60
-130.91
-118.46
-95.14
-63.44
-27.71
7.14
37.18
60.26
76.14
85.80
90.62
91.79
90.14
86.36
81.20
75.56
70.28
65.95
62.75
60.45
58.68
57.11
55.71
54.65
54.13
54.12
54.26
53.97
52.65
49.97
45.96
41.02
35.67
30.28
24.96
19.53
13.75
7.46
0.75
-6.01
-12.35
-17.90
-22.64
-26.92
-31.42
-36.79
-43.37
-50.97
-58.91
-66.33
-72.59
-77.51
-81.57
-85.66
-90.91
-98.31
-108.39
-120.79
-133.86
-144.63
-149.32
-144.41
-127.92
-100.49
-65.32
-27.34
8.42
38.27
60.58
75.60
84.58
88.92
89.71
87.66
83.50
78.11
72.50
67.56
63.80
61.24
59.55
58.26
57.10
56.14
55.62
55.85
56.82
58.09
58.85
58.20
55.54
50.84
44.69
38.05
31.80
26.37
21.60
16.90
11.61
5.40
-1.50
-8.46
-14.69
-19.74
-23.69
-27.15
-30.96
-35.81
-41.86
-48.70
-55.55
-61.66
-66.62
-70.54
-74.01
-77.85
-83.01
-90.19
-99.57
-110.40
-120.73
-127.44
-126.97
-116.53
-95.20
-64.67
-28.83
7.46
39.79
65.40
83.44
94.43
99.55
99.95
96.65
90.65
83.14
75.47
68.79
63.82
60.55
58.47
56.85
55.09
53.05
50.99
49.35
48.47
48.31
48.38
47.93
46.30
43.18
38.74
33.57
28.36
23.60
19.46
15.70
11.90
7.68
2.91
-2.24
-7.34
-11.97
-15.88
-19.12
-22.10
-25.29
-29.07
-33.50
-38.26
-42.81
-46.69
-49.72
-52.08
-54.32
-57.09
-61.04
-66.58
-73.70
-81.69
-88.99
-93.31
-92.20
-83.84
-67.87
-45.74
-20.41
4.60
26.25
42.72
53.72
59.90
62.31
61.85
59.09
54.51
48.70
42.50
36.85
32.50
29.77
28.40
27.79
27.26
26.38
25.11
23.73
22.61
22.02
21.95
22.03
21.70
20.39
17.74
13.78
8.96
3.96
-0.55
-4.18
-7.00
-9.47
-12.21
-15.72
-20.11
-25.06
-29.99
-34.30
-37.62
-40.01
-41.77
-43.48
-45.75
-49.11
-53.89
-59.99
-66.74
-72.77
-76.19
-75.03
-67.94
-54.76
-36.72
-16.25
3.89
21.32
34.64
43.52
48.46
50.30
49.81
47.53
43.88
39.25
34.16
29.16
24.70
21.02
18.11
15.75
13.76
12.07
10.75
9.96
9.72
9.83
9.92
9.53
8.38
6.46
3.99
1.33
-1.28
-3.81
-6.46
-9.54
-13.26
-17.61
-22.31
-26.99
-31.29
-35.09
-38.52
-41.99
-46.02
-51.12
-57.42
-64.51
-71.25
-75.86
-76.38
-71.27
-60.04
-43.57
-23.93
-3.72
14.64
29.48
40.11
46.66
49.67
49.87
47.91
44.42
39.95
35.08
30.32
26.06
22.50
19.65
17.40
15.55
13.94
12.42
10.91
9.38
7.80
6.23
4.73
3.32
1.94
0.35
-1.82
-4.94
-9.19
-14.43
-20.17
-25.79
-30.81
-35.09
-38.82
-42.41
-46.33
-51.01
-56.77
-63.70
-71.43
-78.90
-84.29
-85.31
-79.99
-67.46
-48.53
-25.61
-1.96
19.30
36.13
47.82
54.79
57.98
58.34
56.57
53.14
48.48
43.13
37.70
32.79
28.81
25.86
23.78
22.24
20.81
19.14
17.01
14.37
11.39
8.34
5.43
2.75
0.11
-2.91
-6.79
-11.89
-18.20
-25.32
-32.57
-39.27
-44.94
-49.50
-53.30
-56.92
-61.09
-66.59
-73.97
-83.27
-93.66
-103.14
-108.82
-107.62
-97.34
-77.70
-50.66
-19.93
10.24
36.26
56.20
69.74
77.74
81.43
81.84
79.63
75.29
69.32
62.44
55.47
49.13
43.85
39.70
36.47
33.80
31.41
29.05
26.64
24.14
21.55
18.83
15.95
12.85
9.38
5.34
0.46
-5.43
-12.34
-19.95
-27.74
-35.09
-41.61
-47.24
-52.32
-57.47
-63.42
-70.87
-80.32
-91.78
-104.37
-116.05
-123.69
-123.77
-113.64
-92.64
-62.67
-27.80
7.04
37.59
61.33
77.72
87.67
92.59
93.69
91.80
87.52
81.52
74.66
67.86
61.90
57.18
53.68
51.10
49.01
47.07
45.08
42.95
40.66
38.13
35.26
31.94
28.12
23.79
18.96
13.61
7.64
0.93
-6.52
-14.52
-22.69
-30.59
-37.90
-44.56
-50.82
-57.18
-64.35
-73.07
-83.87
-96.58
-109.97
-121.42
-127.41
-124.46
-110.45
-85.60
-52.71
-16.37
18.53
48.15
70.58
85.65
94.37
98.01
97.69
94.29
88.65
81.77
74.64
68.14
62.71
58.40
54.96
52.10
49.71
47.80
46.44
45.55
44.88
43.96
42.35
39.73
36.05
31.46
26.20
20.52
14.43
7.80
0.46
-7.68
-16.45
-25.40
-33.94
-41.57
-48.10
-53.80
-59.36
-65.79
-74.08
-84.87
-97.81
-111.23
-122.13
-126.73
-121.71
-105.50
-79.07
-45.88
-10.74
21.71
48.32
67.86
80.69
87.86
90.40
89.00
84.19
76.77
67.90
59.01
51.39
45.83
42.51
41.02
40.70
40.85
40.98
40.84
40.39
39.68
38.74
37.50
35.68
32.88
28.65
22.68
14.98
5.95
-3.67
-13.05
-21.53
-28.81
-35.09
-40.92
-47.05
-54.22
-63.07
-73.86
-86.18
-98.61
-108.68
-113.15
-109.00
-94.55
-70.33
-39.19
-5.42
26.51
53.31
73.46
86.99
94.75
97.65
96.31
91.22
83.08
73.07
62.74
53.61
46.67
42.17
39.55
37.82
36.05
33.78
31.10
28.58
26.82
25.99
25.61
24.61
21.82
16.39
8.34
-1.46
-11.66
-20.90
-28.46
-34.39
-39.45
-44.78
-51.49
-60.40
-71.76
-85.06
-98.71
-110.11
-116.01
-113.37
-100.48
-77.80
-48.03
-15.39
15.74
42.05
61.99
75.53
83.43
86.54
85.40
80.47
72.50
62.79
52.98
44.56
38.35
34.22
31.32
28.61
25.41
21.74
18.17
15.43
13.83
13.01
11.92
9.26
4.00
-4.11
-14.42
-25.63
-36.30
-45.40
-52.69
-58.77
-64.77
-72.06
-81.83
-94.67
-110.17
-126.50
-140.45
-147.94
-145.20
-130.11
-103.28
-68.03
-29.40
7.46
38.85
63.16
80.58
92.11
98.70
100.82
98.68
92.74
84.08
74.38
65.39
58.48
54.13
51.94
50.89
49.86
48.10
45.45
42.28
39.20
36.57
34.19
31.32
26.87
19.97
10.34
-1.50
-14.35
-26.77
-37.62
-46.43
-53.58
-60.01
-66.91
-75.43
-86.40
-100.13
-116.12
-132.65
-146.67
-154.23
-151.52
-136.26
-108.84
-72.44
-32.13
6.72
40.07
66.02
84.63
97.03
104.46
107.76
107.41
103.96
98.32
91.76
85.63
80.86
77.77
76.05
75.10
74.43
73.94
73.83
74.38
75.52
76.61
76.57
74.29
69.13
61.25
51.60
41.47
31.97
23.59
15.98
8.30
-0.43
-10.71
-22.34
-34.44
-45.77
-55.32
-62.71
-68.45
-73.75
-80.23
-89.36
-101.85
-117.17
-133.13
-146.14
-151.87
-146.60
-128.53
-98.74
-60.98
-20.59
17.18
48.63
72.21
88.27
98.09
102.94
103.69
100.89
95.17
87.58
79.49
72.32
67.07
64.06
62.96
63.10
63.74
64.41
64.94
65.36
65.67
65.71
65.12
63.44
60.33
55.60
49.35
41.89
33.66
25.17
16.89
9.22
2.32
-3.93
-9.95
-16.37
-23.76
-32.33
-41.82
-51.46
-60.35
-67.78
-73.54
-78.05
-82.15
-86.94
-93.46
-102.47
-114.15
-127.69
-140.97
-150.62
-152.77
-144.13
-123.40
-91.94
-53.56
-13.41
23.64
54.24
77.01
92.15
100.61
103.41
101.39
95.35
86.43
76.22
66.50
58.84
54.12
52.34
52.82
54.52
56.62
58.67
60.64
62.66
64.63
66.02
66.02
63.79
58.93
51.71
43.05
34.14
26.02
19.10
13.08
7.13
0.31
-7.92
-17.47
-27.65
-37.41
-45.77
-52.21
-56.87
-60.52
-64.33
-69.57
-77.19
-87.40
-99.28
-110.73
-118.67
-119.85
-111.86
-94.01
-67.75
-36.32
-3.79
26.10
50.77
69.11
81.15
87.52
88.95
86.10
79.73
70.86
60.87
51.24
43.21
37.51
34.13
32.57
32.18
32.47
33.27
34.57
36.33
38.15
39.31
39.00
36.62
32.15
26.13
19.43
12.87
6.85
1.22
-4.54
-11.01
-18.44
-26.58
-34.81
-42.40
-48.86
-54.10
-58.54
-62.91
-68.14
-75.13
-84.35
-95.46
-106.99
-116.31
-120.22
-115.89
-101.97
-79.22
-50.43
-19.55
9.55
34.03
52.58
65.17
72.43
75.22
74.31
70.46
64.53
57.54
50.49
44.19
39.11
35.34
32.79
31.29
30.74
31.09
32.21
33.84
35.48
36.49
36.18
34.12
30.24
24.91
18.82
12.70
6.97
1.57
-3.98
-10.33
-17.85
-26.44
-35.50
-44.17
-51.78
-58.10
-63.45
-68.57
-74.46
-82.04
-91.81
-103.34
-114.99
-123.88
-126.56
-120.05
-103.06
-76.69
-44.24
-10.23
21.06
46.65
65.32
77.33
83.70
85.62
84.07
79.97
74.19
67.73
61.50
56.18
52.01
48.78
46.03
43.28
40.41
37.67
35.61
34.69
34.97
35.90
36.40
35.31
31.85
26.02
18.59
10.84
3.95
-1.48
-5.67
-9.54
-14.22
-20.56
-28.69
-38.01
-47.43
-55.87
-62.65
-67.77
-71.86
-75.94
-81.16
-88.38
-97.83
-108.68
-118.94
-125.63
-125.46
-115.97
-96.47
-68.59
-35.95
-3.02
26.19
49.20
65.31
75.18
80.01
80.96
78.81
74.14
67.67
60.33
53.17
47.12
42.71
39.91
38.31
37.32
36.51
35.80
35.35
35.49
36.33
37.66
38.86
39.11
37.67
34.10
28.50
21.46
13.83
6.51
0.14
-5.14
-9.62
-14.00
-18.98
-25.00
-32.00
-39.40
-46.40
-52.32
-56.89
-60.38
-63.47
-67.04
-71.99
-78.97
-88.16
-98.92
-109.49
-117.08
-118.46
-110.93
-93.46
-67.31
-35.78
-3.25
26.22
49.95
66.89
77.42
82.50
83.14
80.19
74.39
66.73
58.41
50.68
44.49
40.20
37.48
35.61
33.89
31.96
30.01
28.61
28.32
29.28
31.06
32.69
33.04
31.27
27.19
21.27
14.48
7.88
2.20
-2.40
-6.33
-10.37
-15.26
-21.37
-28.57
-36.29
-43.79
-50.39
-55.82
-60.17
-63.97
-67.98
-73.03
-79.78
-88.31
-97.73
-106.02
-110.31
-107.69
-96.20
-75.77
-48.47
-17.89
11.91
37.59
57.29
70.58
78.05
80.68
79.37
74.90
68.00
59.52
50.44
41.66
33.87
27.44
22.38
18.54
15.75
13.98
13.28
13.69
15.01
16.74
18.12
18.40
17.12
14.24
10.21
5.58
0.80
-4.06
-9.28
-15.24
-22.14
-29.84
-37.82
-45.37
-51.94
-57.33
-61.79
-66.00
-70.90
-77.42
-85.97
-96.05
-105.89
-112.65
-113.07
-104.53
-86.17
-59.35
-27.42
5.30
34.78
58.26
74.72
84.47
88.58
88.23
84.40
77.87
69.42
59.92
50.34
41.57
34.25
28.68
24.76
22.20
20.60
19.64
19.06
18.66
18.24
17.60
16.53
14.86
12.45
9.15
4.78
-0.80
-7.62
-15.45
-23.82
-32.10
-39.69
-46.26
-51.91
-57.09
-62.57
-69.19
-77.71
-88.47
-100.97
-113.48
-123.04
-126.02
-119.21
-101.11
-72.78
-37.75
-0.95
32.83
60.32
80.26
93.09
100.04
102.28
100.62
95.60
87.82
78.21
67.93
58.10
49.63
42.89
37.88
34.29
31.67
29.58
27.76
26.07
24.48
23.01
21.55
19.81
17.28
13.38
7.68
0.08
-9.13
-19.26
-29.46
-39.01
-47.48
-54.84
-61.46
-67.96
-75.15
-83.96
-95.10
-108.62
-123.37
-136.63
-144.42
-142.63
-128.47
-101.76
-65.38
-24.47
15.25
49.14
74.75
91.83
101.56
105.59
105.32
101.74
95.68
87.99
79.66
71.57
64.41
58.43
53.60
49.79
46.90
44.92
43.86
43.55
43.62
43.55
42.80
41.02
38.11
34.11
29.12
23.16
16.17
8.13
-0.85
-10.45
-20.16
-29.48
-38.06
-45.83
-53.11
-60.49
-68.80
-78.92
-91.41
-105.98
-120.98
-133.35
-139.10
-134.50
-117.50
-88.72
-51.52
-11.10
27.16
59.12
82.77
98.07
106.24
108.87
107.34
102.64
95.61
87.10
78.05
69.36
61.72
55.51
50.77
47.33
44.97
43.49
42.69
42.32
42.03
41.32
39.74
36.96
32.92
27.75
21.70
14.92
7.49
-0.63
-9.44
-18.74
-28.21
-37.38
-45.87
-53.50
-60.41
-67.09
-74.35
-83.13
-94.25
-107.80
-122.50
-135.53
-142.90
-140.60
-126.16
-99.70
-64.27
-24.84
13.15
45.60
70.37
87.32
97.43
101.84
101.40
96.68
88.38
77.58
65.88
55.01
46.41
40.93
38.57
38.66
40.15
41.98
43.37
44.01
43.96
43.44
42.57
41.14
38.67
34.48
28.12
19.56
9.32
-1.63
-12.25
-21.70
-29.70
-36.50
-42.81
-49.56
-57.65
-67.77
-80.11
-94.10
-108.00
-119.05
-123.93
-119.69
-104.88
-80.22
-48.60
-14.18
18.84
47.31
69.63
85.49
95.23
99.29
98.05
91.99
82.15
70.09
57.78
46.96
38.68
33.09
29.59
27.26
25.39
23.80
22.69
22.48
23.34
24.90
26.26
26.15
23.49
17.75
9.31
-0.74
-10.92
-20.03
-27.51
-33.65
-39.39
-45.95
-54.42
-65.49
-79.10
-94.26
-108.82
-119.67
-123.33
-117.01
-99.67
-72.60
-39.21
-3.98
28.83
56.28
76.96
90.77
98.18
99.77
96.15
88.19
77.23
65.02
53.41
43.76
36.62
31.73
28.27
25.46
22.96
20.96
19.96
20.28
21.62
22.98
22.97
20.29
14.36
5.57
-4.87
-15.43
-24.83
-32.58
-39.03
-45.30
-52.82
-62.88
-76.10
-91.99
-108.55
-122.44
-129.68
-126.76
-111.94
-86.04
-52.27
-15.38
19.88
50.04
73.42
89.89
100.12
104.86
104.60
99.82
91.35
80.60
69.47
59.82
52.87
48.88
47.15
46.42
45.58
44.09
42.18
40.48
39.53
39.27
38.88
37.08
32.69
25.19
14.98
3.30
-8.34
-18.70
-27.29
-34.44
-41.17
-48.78
-58.44
-70.88
-85.94
-102.24
-117.17
-127.18
-128.65
-119.04
-97.92
-67.29
-31.13
5.77
39.16
66.24
85.96
98.59
105.08
106.45
103.66
97.65
89.48
80.34
71.35
63.40
56.92
51.94
48.24
45.60
43.83
42.89
42.55
42.42
41.97
40.61
37.95
33.94
28.78
22.79
16.18
9.01
1.18
-7.43
-16.80
-26.71
-36.76
-46.44
-55.34
-63.26
-70.31
-77.00
-84.18
-92.91
-103.99
-117.40
-131.73
-144.03
-150.31
-146.73
-131.05
-103.64
-67.68
-28.14
9.67
41.74
66.06
82.62
92.59
97.44
98.33
96.12
91.50
85.31
78.59
72.37
67.38
63.90
61.77
60.61
60.11
60.13
60.65
61.64
62.86
63.86
64.02
62.81
59.95
55.57
50.03
43.80
37.22
30.42
23.38
16.03
8.42
0.79
-6.53
-13.25
-19.32
-25.07
-30.99
-37.59
-45.06
-53.16
-61.33
-68.90
-75.40
-80.78
-85.44
-90.15
-95.89
-103.62
-113.90
-126.38
-139.37
-149.74
-153.50
-147.00
-128.35
-98.38
-60.61
-20.24
17.52
48.83
72.00
87.19
95.69
99.00
98.33
94.58
88.59
81.31
73.86
67.23
62.05
58.43
56.02
54.32
52.93
51.85
51.37
51.82
53.30
55.38
57.21
57.81
56.46
53.01
47.93
42.10
36.42
31.45
27.24
23.32
19.04
13.82
7.52
0.49
-6.56
-12.85
-17.90
-21.73
-24.90
-28.25
-32.52
-37.98
-44.32
-50.80
-56.58
-61.13
-64.45
-67.10
-70.06
-74.43
-81.11
-90.48
-101.92
-113.52
-122.24
-124.53
-117.40
-99.67
-72.62
-39.76
-5.77
24.90
49.33
66.46
76.82
81.70
82.38
79.88
74.92
68.28
60.82
53.47
46.94
41.61
37.46
34.27
31.86
30.16
29.23
29.15
29.84
30.98
32.11
32.70
32.37
30.89
28.27
24.65
20.27
15.36
10.19
4.99
-0.06
-4.84
-9.34
-13.66
-18.00
-22.57
-27.57
-33.00
-38.70
-44.37
-49.61
-54.12
-57.75
-60.60
-62.99
-65.48
-68.75
-73.46
-80.06
-88.30
-96.91
-103.53
-105.24
-99.42
-84.90
-62.50
-35.02
-6.27
20.07
41.48
56.92
66.64
71.45
72.30
69.97
65.13
58.49
50.91
43.28
36.33
30.52
25.98
22.56
20.06
18.33
17.39
17.36
18.32
20.16
22.47
24.56
25.66
25.23
23.05
19.39
14.83
10.06
5.65
1.81
-1.66
-5.19
-9.28
-14.23
-19.89
-25.76
-31.16
-35.53
-38.71
-40.98
-43.00
-45.51
-49.21
-54.50
-61.41
-69.34
-77.01
-82.43
-83.34
-77.85
-65.23
-46.29
-23.34
0.55
22.43
40.26
53.16
61.22
65.05
65.38
62.86
58.16
51.94
44.93
37.77
30.96
24.80
19.46
15.06
11.71
9.48
8.37
8.25
8.79
9.58
10.18
10.18
9.35
7.66
5.25
2.36
-0.86
-4.38
-8.32
-12.84
-17.96
-23.50
-29.12
-34.40
-39.10
-43.18
-46.90
-50.74
-55.21
-60.77
-67.45
-74.66
-80.96
-84.27
-82.41
-73.87
-58.53
-37.87
-14.59
8.20
27.94
43.20
53.66
59.80
62.37
61.98
59.05
53.99
47.35
39.88
32.43
25.75
20.30
16.17
13.07
10.57
8.31
6.11
4.01
2.25
0.99
0.25
-0.19
-0.81
-2.11
-4.54
-8.30
-13.24
-19.00
-25.02
-30.82
-36.11
-40.87
-45.30
-49.82
-54.90
-61.09
-68.80
-78.03
-88.03
-97.08
-102.70
-102.24
-93.84
-77.25
-54.07
-27.37
-0.71
22.96
41.91
55.75
64.95
70.25
72.20
71.16
67.43
61.55
54.38
46.90
40.05
34.38
30.01
26.65
23.80
21.08
18.29
15.52
13.03
11.08
9.74
8.85
7.91
6.28
3.26
-1.59
-8.25
-16.18
-24.51
-32.35
-39.13
-44.83
-49.92
-55.14
-61.35
-69.16
-78.93
-90.36
-102.32
-112.62
-118.27
-116.25
-104.59
-83.32
-54.70
-22.59
8.72
35.84
57.03
72.11
81.84
87.17
88.80
87.13
82.56
75.77
67.73
59.53
52.13
46.12
41.61
38.35
35.92
33.87
31.89
29.83
27.68
25.46
23.21
20.82
18.06
14.60
10.09
4.26
-2.96
-11.33
-20.37
-29.47
-38.09
-45.94
-53.04
-59.78
-66.79
-74.88
-84.85
-97.13
-111.24
-125.32
-136.17
-139.85
-132.97
-114.00
-84.11
-47.03
-7.84
28.55
58.69
81.11
95.97
104.30
107.31
106.11
101.74
95.35
88.11
81.03
74.70
69.23
64.40
59.97
55.90
52.46
50.06
48.93
48.92
49.49
49.81
49.04
46.63
42.49
36.97
30.69
24.18
17.64
10.88
3.39
-5.26
-15.12
-25.75
-36.29
-45.81
-53.79
-60.35
-66.29
-72.83
-81.29
-92.50
-106.38
-121.41
-134.51
-141.63
-138.75
-123.40
-95.75
-58.88
-17.93
21.52
55.03
80.32
97.19
106.82
110.76
110.37
106.66
100.56
93.10
85.43
78.48
72.79
68.33
64.67
61.30
57.98
54.90
52.55
51.36
51.39
52.06
52.33
51.10
47.66
42.05
34.97
27.52
20.63
14.71
9.45
4.08
-2.26
-10.05
-19.13
-28.82
-38.13
-46.25
-52.82
-58.12
-62.93
-68.41
-75.73
-85.64
-97.90
-110.87
-121.43
-125.64
-119.92
-102.53
-74.46
-39.35
-2.33
31.64
59.13
78.86
91.31
97.84
99.81
98.18
93.68
87.05
79.28
71.47
64.52
58.83
54.33
50.64
47.35
44.38
41.98
40.57
40.41
41.30
42.55
43.17
42.18
39.09
34.02
27.68
21.08
15.08
10.09
5.86
1.67
-3.31
-9.60
-17.15
-25.35
-33.34
-40.39
-46.26
-51.24
-56.14
-61.96
-69.58
-79.47
-91.21
-103.22
-112.71
-116.25
-110.83
-95.02
-69.79
-38.38
-5.33
24.97
49.49
67.01
77.85
83.09
83.86
81.05
75.50
68.08
59.87
51.93
45.07
39.61
35.49
32.41
30.11
28.47
27.56
27.45
28.05
29.00
29.72
29.59
28.16
25.36
21.50
17.07
12.51
8.00
3.32
-1.94
-8.17
-15.38
-23.20
-30.90
-37.80
-43.53
-48.20
-52.44
-57.17
-63.40
-71.82
-82.38
-93.93
-104.04
-109.49
-107.11
-95.07
-73.63
-45.45
-14.57
14.72
39.26
57.61
69.79
76.67
79.16
77.97
73.65
66.86
58.56
49.86
41.84
35.26
30.41
27.14
24.98
23.39
21.94
20.44
18.95
17.75
17.01
16.74
16.61
16.02
14.31
11.03
6.10
-0.10
-6.87
-13.46
-19.30
-24.20
-28.39
-32.42
-36.97
-42.60
-49.74
-58.45
-68.39
-78.47
-86.84
-91.06
-88.80
-78.66
-60.91
-37.62
-12.11
12.12
32.44
47.60
57.61
63.14
64.91
63.42
59.03
52.29
44.09
35.63
28.03
21.95
17.43
13.97
10.90
7.80
4.74
2.20
0.74
0.58
1.33
1.98
1.35
-1.48
-6.66
-13.58
-21.07
-27.98
-33.60
-37.91
-41.52
-45.40
-50.52
-57.58
-66.82
-77.76
-89.03
-98.35
-102.89
-99.99
-88.19
-67.91
-41.54
-12.76
14.56
37.49
54.61
65.87
71.98
73.83
72.11
67.40
60.41
52.13
43.66
35.94
29.47
24.19
19.73
15.70
11.95
8.70
6.31
4.96
4.40
3.91
2.49
-0.71
-6.05
-13.21
-21.33
-29.40
-36.69
-42.96
-48.65
-54.68
-62.18
-72.11
-84.68
-98.96
-112.61
-122.20
-124.11
-115.79
-96.78
-69.10
-36.63
-3.88
25.34
48.79
65.85
76.93
82.82
84.24
81.85
76.43
69.02
60.86
52.99
46.02
40.02
34.64
29.56
24.70
20.40
17.22
15.59
15.44
16.00
15.97
13.96
9.10
1.37
-8.37
-18.77
-28.55
-37.03
-44.36
-51.40
-59.50
-70.00
-83.71
-100.36
-118.04
-133.25
-141.51
-138.72
-122.72
-94.36
-57.44
-17.50
19.99
51.25
74.80
91.06
101.26
106.49
107.28
103.93
97.00
87.67
77.64
68.56
61.54
56.72
53.41
50.58
47.38
43.62
39.75
36.61
34.76
34.12
33.76
32.22
28.03
20.36
9.45
-3.52
-16.83
-28.91
-38.95
-47.09
-54.34
-62.11
-71.82
-84.51
-100.53
-119.09
-137.98
-153.55
-161.28
-157.13
-139.00
-107.79
-67.38
-23.53
17.91
52.69
78.88
96.69
107.46
112.74
113.71
111.19
105.95
98.95
91.29
83.97
77.67
72.59
68.58
65.42
63.02
61.48
61.01
61.53
62.59
63.25
62.43
59.28
53.60
45.88
37.06
28.09
19.49
11.16
2.52
-7.11
-18.03
-30.02
-42.28
-53.83
-63.85
-72.07
-78.90
-85.44
-93.19
-103.59
-117.37
-133.79
-150.17
-162.15
-164.83
-154.34
-129.50
-92.50
-48.31
-3.10
37.72
70.87
95.46
112.26
122.61
127.63
127.93
124.03
116.83
107.75
98.55
90.78
85.30
82.14
80.67
80.00
79.49
78.97
78.72
79.09
80.22
81.67
82.52
81.68
78.24
71.99
63.45
53.83
44.47
36.38
29.83
24.27
18.55
11.49
2.39
-8.66
-20.85
-32.95
-43.83
-52.82
-59.96
-65.84
-71.43
-77.85
-86.16
-97.05
-110.45
-125.03
-138.00
-145.47
-143.44
-129.31
-103.06
-67.49
-27.51
11.52
45.34
71.75
90.46
102.36
108.50
109.61
106.21
98.96
89.10
78.38
68.59
61.08
56.33
53.95
53.09
52.87
52.83
52.99
53.61
54.85
56.47
57.76
57.74
55.60
50.96
44.08
35.78
27.09
18.95
11.89
5.85
0.31
-5.50
-12.21
-20.04
-28.69
-37.43
-45.40
-52.00
-57.09
-61.15
-65.02
-69.70
-76.08
-84.65
-95.15
-106.41
-116.16
-121.46
-119.42
-108.21
-87.86
-60.44
-29.50
1.04
27.95
49.33
64.61
74.08
78.34
78.02
73.84
66.72
57.87
48.68
40.34
33.67
28.93
25.94
24.31
23.70
23.97
25.11
27.08
29.58
32.03
33.57
33.44
31.23
27.06
21.56
15.52
9.61
4.05
-1.39
-7.21
-13.84
-21.40
-29.56
-37.65
-45.01
-51.18
-56.17
-60.40
-64.63
-69.78
-76.56
-85.18
-94.91
-103.95
-109.66
-109.26
-100.75
-83.78
-59.90
-32.18
-4.22
20.86
41.14
55.98
65.65
70.81
72.04
69.89
64.92
57.92
49.89
41.90
34.81
29.09
24.88
22.03
20.38
19.82
20.31
21.70
23.62
25.47
26.57
26.35
24.64
21.65
17.82
13.55
9.04
4.19
-1.28
-7.57
-14.67
-22.26
-29.81
-36.79
-42.85
-47.93
-52.38
-56.80
-61.99
-68.70
-77.20
-86.96
-96.32
-102.75
-103.39
-96.09
-80.29
-57.35
-30.27
-2.68
22.15
42.19
56.76
66.20
71.28
72.78
71.31
67.40
61.68
54.93
47.96
41.47
35.94
31.55
28.32
26.22
25.16
25.09
25.82
26.98
28.03
28.37
27.54
25.39
22.11
18.12
13.84
9.41
4.66
-0.79
-7.30
-14.95
-23.36
-31.81
-39.56
-46.05
-51.25
-55.55
-59.68
-64.52
-70.81
-78.90
-88.33
-97.64
-104.38
-105.67
-99.16
-83.90
-60.96
-33.25
-4.60
21.42
42.39
57.43
66.86
71.59
72.58
70.61
66.30
60.34
53.48
46.56
40.29
35.06
30.87
27.52
24.77
22.59
21.20
20.92
21.86
23.71
25.67
26.74
26.10
23.46
19.18
14.09
9.07
4.64
0.76
-3.11
-7.69
-13.51
-20.62
-28.53
-36.47
-43.65
-49.64
-54.46
-58.65
-63.04
-68.57
-75.99
-85.56
-96.64
-107.47
-115.26
-116.80
-109.51
-92.50
-67.10
-36.63
-5.32
22.95
45.67
62.03
72.40
77.73
78.90
76.61
71.52
64.50
56.67
49.18
42.80
37.81
33.95
30.74
27.81
25.16
23.11
22.10
22.35
23.68
25.43
26.69
26.60
24.60
20.66
15.23
9.11
3.12
-2.23
-6.91
-11.38
-16.41
-22.63
-30.23
-38.78
-47.39
-55.10
-61.24
-65.78
-69.29
-72.80
-77.44
-84.19
-93.46
-104.71
-116.21
-125.06
-127.81
-121.51
-104.82
-78.74
-46.43
-12.28
19.45
45.71
65.18
77.97
85.02
87.43
86.16
82.02
75.88
68.74
61.60
55.26
50.09
46.03
42.71
39.71
36.84
34.31
32.53
31.98
32.78
34.53
36.35
37.12
35.91
32.36
26.77
20.01
13.16
7.05
1.94
-2.59
-7.37
-13.24
-20.59
-29.15
-38.05
-46.21
-52.80
-57.54
-60.93
-63.98
-67.95
-73.98
-82.69
-93.80
-105.83
-116.08
-121.11
-117.65
-103.83
-80.02
-48.88
-14.65
18.14
45.96
66.95
80.85
88.45
90.92
89.37
84.80
78.16
70.48
62.68
55.45
49.12
43.65
38.85
34.54
30.74
27.71
25.79
25.21
25.88
27.28
28.53
28.70
27.14
23.71
18.85
13.35
7.95
3.00
-1.66
-6.64
-12.56
-19.76
-28.03
-36.77
-45.15
-52.53
-58.70
-63.88
-68.75
-74.25
-81.36
-90.70
-102.05
-113.90
-123.42
-127.02
-121.41
-104.95
-78.39
-44.89
-9.08
24.46
52.39
73.19
86.87
94.36
96.72
94.86
89.53
81.58
72.01
61.94
52.36
44.01
37.22
32.06
28.41
26.13
25.05
24.95
25.53
26.36
27.01
27.08
26.35
24.76
22.33
19.03
14.75
9.36
2.83
-4.63
-12.60
-20.55
-28.08
-34.97
-41.33
-47.44
-53.76
-60.87
-69.35
-79.55
-91.05
-102.31
-110.63
-112.72
-105.89
-89.11
-63.73
-33.08
-1.46
27.26
50.65
67.90
79.37
85.85
87.96
86.09
80.58
72.06
61.63
50.70
40.66
32.52
26.68
22.90
20.51
18.79
17.32
16.07
15.40
15.62
16.73
18.17
18.95
18.01
14.63
8.71
0.84
-7.96
-16.65
-24.52
-31.33
-37.36
-43.23
-49.67
-57.45
-67.11
-78.83
-92.02
-105.08
-115.32
-119.53
-114.86
-99.94
-75.57
-44.61
-11.25
20.34
47.06
67.43
81.31
89.33
92.26
90.71
85.23
76.59
65.96
54.77
44.43
35.92
29.56
24.99
21.49
18.38
15.42
12.84
11.21
10.95
11.94
13.38
13.95
12.36
7.85
0.56
-8.58
-18.19
-27.06
-34.54
-40.78
-46.50
-52.76
-60.61
-70.89
-83.82
-98.71
-113.63
-125.41
-130.35
-125.33
-109.00
-82.51
-49.26
-13.81
19.53
47.82
69.82
85.51
95.41
99.98
99.54
94.61
86.16
75.69
64.91
55.29
47.62
41.89
37.56
33.92
30.53
27.48
25.26
24.37
24.91
26.24
27.08
25.91
21.55
13.75
3.23
-8.50
-19.85
-29.67
-37.69
-44.48
-51.19
-59.17
-69.61
-83.17
-99.55
-117.08
-132.62
-142.06
-141.39
-128.18
-102.68
-67.93
-28.93
9.12
42.24
68.52
87.83
100.97
108.76
111.65
109.84
103.83
94.71
84.15
73.93
65.38
58.98
54.37
50.69
47.13
43.36
39.69
36.81
35.34
35.34
36.02
35.95
33.57
27.80
18.53
6.68
-6.15
-18.36
-28.85
-37.45
-44.80
-52.10
-60.65
-71.61
-85.66
-102.58
-120.83
-137.28
-147.59
-147.35
-133.60
-106.26
-68.47
-25.75
15.82
51.45
78.76
97.69
109.54
115.83
117.60
115.43
109.84
101.74
92.41
83.23
75.30
69.13
64.68
61.57
59.44
58.00
57.12
56.61
56.12
55.18
53.33
50.34
46.20
41.10
35.16
28.33
20.35
10.99
0.32
-11.22
-22.85
-33.81
-43.65
-52.45
-60.73
-69.37
-79.39
-91.74
-106.90
-124.34
-141.98
-156.09
-162.08
-155.85
-135.48
-102.24
-60.36
-15.82
25.66
60.11
85.96
103.58
114.22
119.21
119.51
115.96
109.54
101.53
93.34
86.13
80.49
76.34
73.18
70.43
67.87
65.73
64.50
64.57
65.83
67.43
67.99
66.13
61.08
53.10
43.38
33.56
24.99
18.14
12.46
6.69
-0.48
-9.76
-20.95
-33.04
-44.69
-54.82
-62.99
-69.51
-75.37
-81.85
-90.29
-101.64
-115.86
-131.44
-145.20
-152.80
-150.03
-134.35
-106.10
-68.71
-27.57
11.66
44.74
69.74
86.72
96.88
101.57
101.81
98.32
91.97
83.96
75.72
68.55
63.17
59.62
57.33
55.54
53.75
51.96
50.62
50.33
51.31
53.16
54.82
54.94
52.45
47.08
39.51
31.06
23.10
16.39
10.77
5.32
-1.12
-9.28
-19.11
-29.76
-40.04
-48.85
-55.69
-60.74
-64.77
-68.94
-74.46
-82.34
-92.95
-105.52
-117.86
-126.54
-127.72
-118.46
-98.00
-68.26
-33.39
1.61
32.42
56.55
73.44
83.89
89.13
90.12
87.51
81.89
74.15
65.55
57.40
50.67
45.69
42.15
39.46
37.11
35.01
33.49
32.95
33.54
34.90
36.14
36.21
34.32
30.32
24.77
18.67
13.02
8.35
4.52
0.76
-3.86
-10.01
-17.72
-26.38
-34.95
-42.48
-48.45
-53.03
-56.99
-61.43
-67.47
-75.84
-86.54
-98.49
-109.43
-116.24
-115.73
-105.77
-86.11
-58.81
-27.63
3.08
29.75
50.29
64.30
72.50
75.98
75.73
72.49
66.96
59.95
52.45
45.43
39.55
35.09
31.95
29.81
28.34
27.43
27.09
27.39
28.21
29.15
29.61
28.92
26.67
22.89
18.05
12.88
7.99
3.65
-0.34
-4.53
-9.47
-15.47
-22.38
-29.71
-36.80
-43.18
-48.71
-53.64
-58.60
-64.35
-71.58
-80.49
-90.38
-99.41
-104.88
-103.94
-94.64
-76.84
-52.50
-25.09
1.49
24.15
41.26
52.73
59.34
62.11
61.74
58.65
53.16
45.80
37.41
29.01
21.63
15.97
12.32
10.55
10.19
10.66
11.41
12.07
12.48
12.62
12.52
12.15
11.36
9.92
7.52
3.95
-0.84
-6.65
-13.09
-19.68
-25.96
-31.61
-36.57
-41.02
-45.33
-50.00
-55.58
-62.51
-70.88
-80.15
-88.80
-94.55
-94.78
-87.55
-72.37
-50.61
-25.18
0.41
23.12
41.12
53.93
61.94
65.86
66.22
63.32
57.49
49.32
39.81
30.17
21.58
14.83
10.21
7.42
5.86
4.93
4.30
3.96
4.12
4.83
5.82
6.31
5.41
2.39
-2.89
-9.91
-17.61
-24.88
-30.95
-35.64
-39.40
-43.06
-47.54
-53.60
-61.71
-71.81
-83.20
-94.32
-102.85
-106.14
-101.92
-89.22
-68.82
-43.19
-15.76
10.10
31.94
48.60
59.96
66.46
68.58
66.77
61.52
53.60
44.15
34.54
25.95
19.13
14.20
10.78
8.32
6.37
4.84
3.93
3.90
4.72
5.82
6.23
4.83
0.86
-5.68
-14.05
-23.00
-31.32
-38.27
-43.91
-48.96
-54.52
-61.73
-71.39
-83.64
-97.67
-111.49
-122.11
-126.17
-120.91
-105.25
-80.28
-49.13
-15.94
15.29
41.72
61.98
75.84
83.72
86.16
83.77
77.35
68.09
57.50
47.13
38.16
31.16
26.11
22.57
20.05
18.31
17.39
17.43
18.40
19.81
20.72
19.92
16.38
9.68
0.26
-10.73
-21.80
-31.74
-39.98
-46.82
-53.25
-60.63
-70.27
-82.97
-98.48
-115.15
-129.83
-138.49
-137.33
-124.13
-99.29
-65.82
-28.46
7.89
39.53
64.64
83.03
95.38
102.40
104.55
102.14
95.79
86.62
76.24
66.32
58.21
52.51
49.12
47.36
46.40
45.60
44.66
43.68
42.87
42.29
41.62
40.14
36.89
30.99
22.11
10.60
-2.47
-15.72
-27.88
-38.26
-46.94
-54.67
-62.61
-71.95
-83.68
-98.16
-114.75
-131.47
-145.05
-151.50
-147.26
-130.47
-101.88
-64.83
-24.23
14.91
48.85
75.78
95.55
108.96
116.94
120.16
119.13
114.52
107.48
99.50
92.07
86.28
82.47
80.28
78.96
77.87
76.79
75.94
75.73
76.34
77.43
78.09
77.11
73.46
66.71
57.23
46.07
34.62
24.05
14.93
7.03
-0.49
-8.65
-18.24
-29.33
-41.30
-53.03
-63.44
-71.91
-78.54
-84.13
-89.96
-97.44
-107.77
-121.43
-137.69
-154.20
-167.13
-171.94
-164.79
-144.04
-111.06
-70.03
-26.59
13.93
47.92
73.99
92.52
104.71
111.76
114.51
113.63
109.94
104.52
98.62
93.32
89.26
86.52
84.81
83.69
82.89
82.37
82.24
82.58
83.21
83.70
83.42
81.82
78.57
73.69
67.40
60.06
52.04
43.62
35.06
26.59
18.44
10.78
3.60
-3.33
-10.42
-18.16
-26.83
-36.32
-46.11
-55.43
-63.63
-70.41
-76.04
-81.22
-86.93
-94.22
-103.96
-116.46
-131.00
-145.42
-156.21
-159.18
-150.89
-129.97
-97.95
-58.91
-18.19
19.26
50.23
73.61
89.89
100.22
105.66
106.92
104.61
99.60
93.17
86.77
81.61
78.25
76.54
75.86
75.51
75.18
75.03
75.46
76.74
78.67
80.53
81.28
80.04
76.39
70.58
63.36
55.72
48.48
42.06
36.32
30.77
24.78
17.98
10.42
2.57
-4.91
-11.50
-17.08
-22.05
-27.07
-32.78
-39.46
-46.92
-54.58
-61.78
-68.03
-73.28
-77.90
-82.55
-88.13
-95.54
-105.34
-117.22
-129.65
-139.71
-143.69
-138.23
-121.62
-94.71
-60.82
-24.69
9.06
37.15
58.22
72.46
80.82
84.38
83.98
80.40
74.54
67.56
60.71
55.00
51.00
48.75
47.90
47.95
48.55
49.56
51.05
53.12
55.65
58.17
59.96
60.28
58.68
55.19
50.32
44.80
39.30
34.07
28.99
23.63
17.63
10.93
3.87
-2.96
-9.05
-14.23
-18.79
-23.30
-28.29
-33.94
-40.01
-45.91
-51.06
-55.12
-58.16
-60.67
-63.37
-67.12
-72.70
-80.56
-90.37
-100.70
-108.98
-112.10
-107.40
-93.66
-71.75
-44.43
-15.44
11.61
34.26
51.39
63.03
69.72
72.11
70.75
66.23
59.38
51.31
43.24
36.30
31.23
28.23
27.07
27.17
27.95
28.97
30.04
31.16
32.37
33.59
34.57
34.88
34.03
31.73
27.98
23.09
17.67
12.38
7.71
3.80
0.39
-3.12
-7.38
-12.80
-19.38
-26.61
-33.75
-40.05
-45.10
-48.95
-52.06
-55.07
-58.68
-63.41
-69.57
-77.08
-85.21
-92.49
-96.82
-95.97
-88.32
-73.56
-52.98
-29.07
-4.82
17.15
35.11
48.37
56.94
61.19
61.60
58.74
53.31
46.26
38.70
31.62
25.74
21.33
18.26
16.24
15.00
14.48
14.76
15.98
18.04
20.52
22.67
23.72
23.01
20.38
16.14
10.99
5.70
0.83
-3.50
-7.57
-11.93
-17.05
-23.08
-29.73
-36.44
-42.56
-47.69
-51.82
-55.35
-58.92
-63.27
-69.05
-76.50
-85.20
-93.84
-100.29
-102.09
-97.15
-84.59
-65.16
-41.11
-15.54
8.48
28.72
44.06
54.38
60.20
62.19
61.01
57.36
51.93
45.46
38.75
32.45
27.05
22.82
19.82
18.02
17.36
17.74
18.96
20.71
22.54
23.86
24.19
23.18
20.76
17.16
12.75
7.90
2.88
-2.31
-7.80
-13.78
-20.29
-27.20
-34.21
-40.94
-47.09
-52.59
-57.63
-62.75
-68.66
-76.11
-85.35
-95.79
-105.67
-112.29
-112.72
-104.83
-88.17
-64.27
-36.23
-7.73
18.01
38.92
54.25
64.20
69.44
70.75
68.86
64.53
58.58
51.93
45.37
39.54
34.76
31.08
28.35
26.49
25.45
25.26
25.93
27.19
28.52
29.17
28.47
26.03
21.94
16.66
10.83
4.91
-0.96
-7.02
-13.66
-21.20
-29.61
-38.48
-47.17
-55.09
-61.94
-67.83
-73.30
-79.16
-86.33
-95.49
-106.64
-118.73
-129.49
-135.73
-134.24
-122.90
-101.54
-72.23
-38.71
-5.27
24.43
48.12
65.09
75.75
81.10
82.25
80.21
75.85
70.01
63.49
57.00
51.09
46.08
42.09
39.15
37.29
36.60
37.17
38.95
41.51
44.06
45.56
45.06
42.07
36.77
29.89
22.38
14.97
7.88
0.80
-6.87
-15.58
-25.35
-35.71
-45.87
-55.12
-63.07
-69.84
-76.06
-82.69
-90.79
-101.12
-113.61
-126.95
-138.41
-144.39
-141.38
-127.26
-102.19
-68.78
-31.35
5.38
37.56
62.95
80.95
92.09
97.41
98.01
94.97
89.38
82.41
75.18
68.54
62.97
58.47
54.84
51.85
49.50
48.03
47.75
48.82
50.92
53.29
54.88
54.73
52.32
47.73
41.56
34.64
27.66
20.92
14.20
6.97
-1.25
-10.66
-21.01
-31.68
-41.92
-51.15
-59.20
-66.46
-73.76
-82.25
-92.93
-106.16
-121.01
-135.05
-144.60
-145.74
-135.58
-113.54
-81.66
-44.07
-5.71
29.18
57.91
79.46
94.03
102.34
105.18
103.37
97.81
89.70
80.35
71.04
62.73
56.00
51.01
47.73
46.04
45.85
47.00
49.19
51.90
54.31
55.59
54.99
52.22
47.50
41.47
34.89
28.34
21.95
15.39
8.17
-0.13
-9.52
-19.58
-29.60
-38.85
-46.92
-53.87
-60.32
-67.30
-75.96
-87.03
-100.29
-114.08
-125.38
-130.42
-125.87
-110.05
-83.73
-50.02
-13.44
21.44
51.17
73.98
89.63
98.76
102.34
101.22
96.15
87.99
77.85
67.07
57.05
48.95
43.44
40.66
40.20
41.38
43.41
45.58
47.36
48.40
48.49
47.52
45.45
42.26
37.88
32.21
25.19
16.84
7.41
-2.63
-12.71
-22.31
-31.13
-39.22
-46.89
-54.66
-63.14
-72.96
-84.50
-97.56
-110.93
-122.24
-128.21
-125.58
-112.30
-88.44
-56.43
-20.45
14.89
45.85
70.23
87.47
98.07
102.94
102.95
98.92
91.68
82.28
71.96
61.96
53.28
46.55
42.00
39.49
38.75
39.30
40.63
42.17
43.31
43.52
42.43
39.91
36.05
31.07
25.10
18.21
10.31
1.35
-8.54
-19.03
-29.55
-39.57
-48.63
-56.63
-63.76
-70.62
-78.04
-86.91
-97.82
-110.55
-123.65
-134.33
-138.99
-134.28
-118.32
-91.58
-56.99
-19.06
17.43
48.73
72.80
89.25
98.79
102.52
101.52
96.78
89.35
80.40
71.18
62.79
55.99
51.10
48.04
46.51
46.20
46.85
48.34
50.41
52.60
54.20
54.41
52.56
48.47
42.46
35.29
27.75
20.36
13.14
5.73
-2.34
-11.35
-21.09
-30.99
-40.33
-48.54
-55.49
-61.51
-67.40
-74.20
-82.89
-93.90
-106.55
-118.81
-127.46
-128.90
-120.33
-100.93
-72.33
-38.23
-3.24
28.48
54.25
73.08
85.28
91.69
93.19
90.56
84.61
76.42
67.36
58.81
51.85
46.99
44.12
42.77
42.44
42.81
43.84
45.58
47.94
50.46
52.37
52.77
50.91
46.56
40.08
32.38
24.53
17.37
11.20
5.68
0.08
-6.35
-13.98
-22.60
-31.49
-39.77
-46.71
-52.11
-56.31
-60.15
-64.73
-71.13
-79.94
-90.92
-102.59
-112.35
-116.96
-113.57
-100.66
-78.79
-50.50
-19.58
10.08
35.47
54.93
68.14
75.56
77.97
76.15
70.93
63.19
54.02
44.58
35.96
28.97
24.11
21.49
20.93
22.08
24.42
27.42
30.48
33.01
34.48
34.50
32.91
29.81
25.48
20.26
14.39
7.99
1.03
-6.44
-14.28
-22.19
-29.72
-36.55
-42.53
-47.81
-52.84
-58.24
-64.66
-72.53
-81.68
-91.03
-98.59
-101.76
-98.18
-86.53
-67.22
-42.36
-15.19
10.98
33.56
51.18
63.57
71.08
74.29
73.71
69.78
63.05
54.35
44.72
35.34
27.36
21.56
18.24
17.15
17.66
18.97
20.41
21.56
22.29
22.64
22.57
21.90
20.26
17.27
12.67
6.52
-0.81
-8.71
-16.53
-23.81
-30.33
-36.23
-41.85
-47.66
-54.23
-62.12
-71.70
-82.82
-94.46
-104.53
-110.22
-108.82
-98.68
-79.96
-54.78
-26.58
0.99
25.06
44.11
57.86
66.76
71.34
72.01
69.06
62.95
54.58
45.23
36.30
29.00
23.96
21.20
20.20
20.23
20.66
21.17
21.75
22.54
23.54
24.45
24.63
23.26
19.69
13.72
5.74
-3.35
-12.45
-20.69
-27.64
-33.47
-38.80
-44.43
-51.18
-59.62
-69.91
-81.55
-93.17
-102.59
-107.13
-104.40
-93.19
-73.99
-49.08
-21.80
4.41
26.98
44.65
57.28
65.39
69.56
70.16
67.48
61.94
54.33
45.79
37.64
31.01
26.55
24.35
23.95
24.62
25.66
26.61
27.33
27.92
28.42
28.67
28.16
26.23
22.30
16.16
8.13
-1.00
-10.25
-18.76
-26.07
-32.23
-37.72
-43.25
-49.57
-57.33
-66.93
-78.27
-90.48
-101.70
-109.26
-110.32
-102.80
-86.32
-62.41
-34.23
-5.47
20.64
42.09
58.21
69.20
75.62
78.02
76.89
72.81
66.53
59.04
51.35
44.32
38.58
34.48
32.13
31.43
32.13
33.84
36.04
38.18
39.67
40.00
38.87
36.17
32.09
27.01
21.35
15.44
9.38
3.07
-3.73
-11.16
-19.14
-27.36
-35.33
-42.63
-49.07
-54.84
-60.52
-66.93
-74.88
-84.55
-95.09
-104.39
-109.53
-107.57
-96.72
-77.08
-50.75
-21.24
7.72
33.12
53.28
67.79
77.08
81.87
82.85
80.68
75.99
69.55
62.25
54.99
48.63
43.78
40.82
39.77
40.43
42.35
45.07
48.07
50.87
53.03
54.16
53.93
52.22
49.16
44.98
40.07
34.69
28.96
22.90
16.50
9.83
3.10
-3.42
-9.53
-15.23
-20.72
-26.29
-32.15
-38.31
-44.53
-50.42
-55.63
-60.00
-63.72
-67.25
-71.32
-76.71
-84.14
-93.86
-105.27
-116.68
-125.39
-128.22
-122.54
-107.23
-83.20
-53.29
-21.33
8.89
34.63
54.54
68.47
76.99
80.85
80.81
77.58
72.00
65.07
57.92
51.56
46.75
43.78
42.56
42.71
43.84
45.65
48.01
50.81
53.86
56.71
58.79
59.51
58.48
55.70
51.47
46.35
40.92
35.63
30.66
25.95
21.23
16.21
10.69
4.75
-1.31
-7.02
-11.91
-15.77
-18.68
-21.09
-23.61
-26.85
-31.13
-36.39
-42.18
-47.88
-52.93
-57.05
-60.47
-63.75
-67.76
-73.34
-81.08
-90.91
-101.87
-111.99
-118.59
-118.91
-110.99
-94.39
-70.52
-42.24
-13.05
13.85
36.31
53.36
65.00
71.70
74.16
73.05
69.10
63.18
56.24
49.22
42.94
37.96
34.55
32.77
32.48
33.45
35.42
38.07
41.02
43.86
46.14
47.45
47.48
46.05
43.22
39.20
34.34
29.02
23.57
18.22
13.06
8.06
3.15
-1.80
-6.90
-12.24
-17.83
-23.69
-29.73
-35.80
-41.68
-47.09
-51.79
-55.72
-59.10
-62.45
-66.56
-72.23
-79.83
-88.95
-98.10
-104.89
-106.58
-100.99
-87.24
-66.23
-40.39
-12.92
13.05
35.29
52.68
64.97
72.49
75.69
75.08
71.32
65.27
57.98
50.55
43.83
38.31
34.16
31.33
29.72
29.26
29.91
31.50
33.75
36.25
38.56
40.39
41.47
41.65
40.75
38.60
35.13
30.41
24.76
18.67
12.62
6.94
1.71
-3.23
-8.22
-13.59
-19.57
-26.12
-32.97
-39.69
-45.81
-51.02
-55.22
-58.71
-62.08
-66.14
-71.63
-78.95
-87.77
-96.83
-103.98
-106.65
-102.60
-90.71
-71.47
-46.94
-20.17
5.66
28.05
45.55
57.82
65.20
68.41
68.22
65.37
60.62
54.76
48.54
42.59
37.36
33.06
29.71
27.24
25.61
24.85
25.00
26.09
27.95
30.27
32.53
34.13
34.51
33.26
30.26
25.72
20.14
14.18
8.50
3.46
-0.94
-5.10
-9.68
-15.26
-22.06
-29.84
-37.90
-45.43
-51.80
-56.80
-60.72
-64.31
-68.48
-74.14
-81.79
-91.15
-101.06
-109.34
-113.28
-110.44
-99.39
-80.40
-55.40
-27.50
-0.06
24.11
43.30
56.92
65.23
68.93
68.87
65.89
60.82
54.52
47.84
41.51
36.04
31.68
28.42
26.15
24.74
24.20
24.63
26.07
28.44
31.36
34.16
36.02
36.22
34.39
30.67
25.68
20.23
15.06
10.45
6.16
1.54
-4.13
-11.26
-19.74
-28.93
-37.95
-46.03
-52.75
-58.20
-62.92
-67.69
-73.41
-80.76
-89.94
-100.21
-109.78
-115.97
-115.86
-107.24
-89.52
-64.10
-34.03
-3.10
25.26
48.70
66.21
77.77
83.98
85.59
83.45
78.47
71.65
64.07
56.65
50.02
44.41
39.79
35.96
32.81
30.41
29.02
28.92
30.23
32.60
35.30
37.32
37.71
35.89
31.97
26.58
20.69
15.19
10.43
6.22
1.87
-3.41
-10.05
-17.96
-26.50
-34.84
-42.22
-48.36
-53.44
-58.10
-63.17
-69.48
-77.56
-87.35
-97.89
-107.17
-112.45
-110.90
-100.64
-81.50
-55.33
-25.43
4.35
30.76
51.78
66.74
75.93
80.13
80.22
77.06
71.55
64.62
57.19
50.04
43.66
38.31
34.03
30.80
28.69
27.76
28.06
29.46
31.58
33.74
35.22
35.41
34.01
31.15
27.22
22.70
17.85
12.70
7.03
0.59
-6.72
-14.73
-23.00
-31.02
-38.35
-44.83
-50.62
-56.21
-62.33
-69.68
-78.66
-88.93
-99.10
-106.82
-109.29
-104.08
-90.06
-67.97
-40.34
-10.74
17.24
40.84
58.65
70.50
76.99
79.04
77.50
73.08
66.41
58.17
49.15
40.26
32.36
26.16
22.06
20.09
19.90
20.92
22.53
24.23
25.72
26.90
27.71
28.00
27.45
25.63
22.16
16.92
10.16
2.45
-5.47
-12.96
-19.68
-25.67
-31.25
-36.89
-43.10
-50.36
-59.01
-69.09
-80.02
-90.41
-98.06
-100.41
-95.30
-81.88
-60.99
-35.11
-7.57
18.34
40.27
57.04
68.47
74.97
77.04
75.11
69.65
61.40
51.40
40.99
31.49
23.92
18.73
15.82
14.66
14.61
15.15
16.04
17.23
18.69
20.15
21.05
20.61
18.15
13.33
6.41
-1.83
-10.35
-18.21
-24.88
-30.40
-35.22
-40.11
-45.88
-53.22
-62.48
-73.39
-84.78
-94.55
-99.99
-98.59
-88.85
-71.02
-47.08
-20.24
6.14
29.37
47.87
61.19
69.52
73.24
72.78
68.64
61.57
52.63
43.13
34.21
26.72
21.00
16.97
14.35
12.85
12.30
12.65
13.81
15.46
17.05
17.82
16.95
13.91
8.58
1.40
-6.75
-14.79
-21.87
-27.60
-32.27
-36.73
-42.14
-49.62
-59.74
-72.10
-85.17
-96.31
-102.38
-100.67
-89.81
-70.35
-44.67
-16.23
11.47
35.74
55.08
69.05
77.76
81.55
80.82
76.12
68.40
58.92
49.13
40.31
33.27
28.25
24.97
22.95
21.79
21.34
21.65
22.76
24.41
25.90
26.19
24.27
19.55
12.16
2.94
-6.85
-16.00
-23.82
-30.32
-36.21
-42.64
-50.75
-61.29
-74.11
-87.89
-100.16
-107.71
-107.56
-97.92
-78.90
-52.64
-22.65
7.20
33.81
55.35
71.29
81.89
87.65
89.00
86.37
80.42
72.24
63.30
55.07
48.66
44.45
42.10
40.88
40.05
39.25
38.51
38.09
38.07
38.12
37.47
35.14
30.36
22.95
13.43
2.86
-7.56
-16.92
-24.86
-31.72
-38.32
-45.73
-54.90
-66.33
-79.73
-93.69
-105.75
-112.79
-111.85
-101.15
-80.86
-53.20
-21.88
9.06
36.34
58.11
73.96
84.46
90.43
92.58
91.37
87.31
81.07
73.68
66.26
59.81
54.96
51.89
50.39
50.03
50.38
51.03
51.66
51.96
51.63
50.37
48.03
44.60
40.16
34.78
28.48
21.18
12.84
3.58
-6.25
-16.11
-25.44
-33.86
-41.41
-48.42
-55.52
-63.38
-72.63
-83.48
-95.52
-107.34
-116.62
-120.49
-116.35
-102.89
-80.71
-52.37
-21.61
7.81
33.09
52.89
67.19
76.66
82.12
84.23
83.49
80.55
76.26
71.57
67.33
64.07
61.90
60.63
60.00
59.88
60.29
61.33
62.97
64.92
66.59
67.31
66.45
63.83
59.62
54.40
48.85
43.45
38.29
33.11
27.46
21.00
13.78
6.23
-0.98
-7.28
-12.51
-16.95
-21.26
-26.12
-31.94
-38.65
-45.75
-52.59
-58.59
-63.59
-67.84
-71.99
-76.93
-83.59
-92.62
-103.94
-116.34
-127.40
-133.82
-132.36
-120.98
-99.79
-71.20
-39.22
-8.20
18.42
38.92
53.15
62.01
66.63
67.93
66.55
63.08
58.27
53.12
48.64
45.59
44.25
44.40
45.51
47.02
48.62
50.29
52.21
54.45
56.84
58.83
59.73
58.90
56.09
51.50
45.80
39.80
34.26
29.63
25.86
22.60
19.25
15.28
10.47
4.96
-0.74
-5.99
-10.33
-13.67
-16.33
-18.97
-22.30
-26.74
-32.29
-38.49
-44.66
-50.18
-54.76
-58.51
-61.94
-65.77
-70.81
-77.78
-86.95
-97.78
-108.64
-116.81
-119.14
-113.05
-97.64
-74.22
-46.02
-17.10
8.90
29.73
44.82
54.73
60.48
62.91
62.59
59.89
55.42
50.03
44.74
40.42
37.59
36.30
36.19
36.83
37.83
39.05
40.51
42.26
44.22
46.06
47.27
47.32
45.83
42.74
38.36
33.26
28.10
23.43
19.47
16.08
12.89
9.50
5.64
1.37
-3.04
-7.18
-10.80
-13.88
-16.71
-19.76
-23.47
-28.05
-33.37
-38.98
-44.33
-48.96
-52.65
-55.59
-58.29
-61.47
-65.90
-72.19
-80.40
-89.81
-98.66
-104.41
-104.34
-96.50
-80.56
-58.10
-32.20
-6.53
15.87
33.21
45.16
52.37
55.78
56.23
54.23
50.19
44.65
38.40
32.38
27.44
24.07
22.34
22.01
22.68
24.03
25.88
28.18
30.84
33.61
36.08
37.74
38.19
37.31
35.24
32.30
28.80
24.97
20.86
16.47
11.84
7.08
2.38
-2.09
-6.26
-10.21
-14.16
-18.40
-23.16
-28.55
-34.48
-40.77
-47.07
-53.10
-58.70
-63.98
-69.31
-75.18
-81.84
-88.97
-95.35
-99.05
-97.88
-90.25
-75.83
-55.86
-32.81
-9.64
11.09
27.84
40.14
48.26
52.71
53.96
52.32
48.17
42.12
35.08
28.09
22.04
17.47
14.51
12.96
12.54
13.03
14.31
16.35
19.00
21.86
24.33
25.75
25.59
23.65
20.16
15.68
10.92
6.49
2.68
-0.63
-3.92
-7.83
-12.82
-18.94
-25.83
-32.80
-39.13
-44.38
-48.52
-51.94
-55.36
-59.57
-65.18
-72.29
-80.24
-87.53
-92.02
-91.48
-84.36
-70.46
-51.07
-28.69
-6.22
13.90
30.15
42.03
49.75
53.80
54.66
52.80
48.70
42.94
36.22
29.22
22.59
16.85
12.43
9.58
8.40
8.77
10.36
12.69
15.20
17.34
18.65
18.89
18.00
16.07
13.30
9.84
5.74
0.99
-4.46
-10.57
-17.19
-24.05
-30.84
-37.31
-43.38
-49.09
-54.73
-60.81
-67.92
-76.48
-86.31
-96.24
-104.05
-107.02
-102.80
-90.39
-70.62
-46.03
-19.96
4.46
25.11
41.16
52.68
60.21
64.24
65.12
63.14
58.70
52.42
45.09
37.60
30.79
25.35
21.71
20.02
20.06
21.38
23.33
25.29
26.79
27.58
27.57
26.77
25.10
22.37
18.30
12.66
5.48
-2.92
-11.99
-21.10
-29.76
-37.75
-45.12
-52.15
-59.29
-67.05
-75.99
-86.46
-98.16
-109.83
-119.09
-122.96
-118.73
-105.12
-82.80
-54.46
-23.87
5.21
30.04
49.33
63.05
71.91
76.71
78.11
76.58
72.59
66.71
59.71
52.46
45.79
40.35
36.48
34.25
33.42
33.60
34.31
35.08
35.55
35.43
34.60
32.97
30.48
27.03
22.46
16.66
9.59
1.41
-7.57
-16.87
-26.05
-34.81
-43.02
-50.84
-58.68
-67.19
-77.09
-88.96
-102.70
-117.08
-129.63
-137.00
-135.90
-124.30
-102.32
-72.29
-38.16
-4.20
26.10
50.72
69.16
81.83
89.59
93.25
93.49
90.98
86.44
80.66
74.40
68.33
62.90
58.41
55.02
52.81
51.82
52.01
53.23
55.04
56.76
