1523015085.00
64.000000
-0.00
-0.00
-0.00
-0.00
-0.00
-0.00
-0.00
-0.00
-0.00
-0.00
0.00
0.01
0.01
-0.00
-0.03
-0.05
-0.05
0.00
0.13
0.36
0.66
1.01
1.37
1.72
2.06
2.40
2.79
3.24
3.80
4.42
5.06
5.66
6.20
6.68
7.15
7.68
8.31
9.14
10.09
11.04
11.88
12.56
13.14
13.76
14.65
15.96
17.91
20.32
22.90
25.38
27.58
29.57
31.68
34.32
37.81
42.54
48.15
54.10
59.83
64.97
69.58
74.14
79.34
85.71
93.76
103.00
112.62
121.73
129.77
136.75
143.30
150.75
157.77
166.64
177.95
191.79
206.97
220.57
228.25
225.36
208.53
176.87
132.76
80.05
23.07
-34.94
-92.44
-149.16
-205.23
-260.37
-313.74
-363.87
-409.83
-450.91
-486.50
-515.74
-537.23
-549.22
-549.96
-538.37
-514.21
-478.67
-433.88
-382.45
-327.02
-269.84
-212.63
-156.66
-102.95
-52.37
-5.90
35.58
71.43
101.35
125.50
144.38
158.69
169.15
176.37
180.75
182.57
182.07
179.51
175.23
169.65
163.18
156.15
148.81
141.30
133.69
126.02
118.33
110.69
103.16
95.80
88.68
81.83
75.25
68.95
62.95
57.25
51.86
46.78
42.03
37.59
33.45
29.61
26.07
22.81
19.83
17.11
14.67
12.48
10.54
8.83
7.35
6.07
4.97
4.05
3.27
2.62
2.09
1.65
1.30
1.01
0.79
0.61
0.48
0.37
0.29
0.24
0.20
0.18
0.17
0.17
0.19
0.21
0.23
0.26
0.30
0.34
0.38
0.43
0.47
0.52
0.57
0.62
0.68
0.73
0.80
0.86
0.94
1.02
1.10
1.20
1.31
1.44
1.58
1.74
1.91
2.10
2.32
2.56
2.83
3.12
3.44
3.80
4.18
4.60
5.06
5.56
6.09
6.66
7.27
7.93
8.63
9.38
10.17
11.01
11.89
12.81
13.78
14.82
15.90
17.06
18.28
19.56
20.84
22.07
23.16
23.99
24.46
24.46
23.90
22.69
20.82
18.25
15.02
11.15
6.77
2.07
-2.72
-7.36
-11.61
-15.27
-18.24
-20.48
-22.02
-22.95
-23.34
-23.26
-22.73
-21.81
-20.54
-19.05
-17.51
-16.10
-15.00
-14.24
-13.73
-13.32
-12.77
-11.95
-10.93
-9.91
-9.22
-9.08
-9.57
-10.52
-11.57
-12.31
-12.53
-12.31
-12.07
-12.32
-13.51
-15.80
-18.93
-22.33
-25.41
-27.70
-29.19
-30.15
-31.12
-32.64
-35.33
-39.62
-45.59
-52.60
-59.06
-62.67
-61.13
-53.12
-39.16
-21.67
-4.08
10.46
20.18
25.06
26.31
25.39
23.23
20.54
17.34
13.68
9.89
6.57
4.31
3.36
3.57
4.56
5.91
7.38
8.98
10.78
12.86
15.13
17.48
19.80
22.05
24.31
26.60
29.03
31.79
35.16
39.45
44.80
50.91
56.99
61.82
64.18
63.17
58.53
50.50
39.70
26.94
13.32
0.31
-10.37
-17.11
-19.11
-16.74
-11.58
-5.78
-1.24
1.15
1.50
0.59
-0.83
-2.41
-4.21
-6.34
-8.66
-10.69
-11.90
-12.00
-11.20
-10.00
-9.00
-8.53
-8.55
-8.78
-8.86
-8.62
-8.11
-7.61
-7.43
-7.82
-8.88
-10.49
-12.42
-14.37
-16.06
-17.39
-18.49
-19.66
-21.29
-23.61
-26.61
-29.98
-33.29
-36.23
-38.80
-41.37
-44.59
-49.13
-55.34
-63.00
-71.09
-77.87
-81.16
-78.97
-70.08
-54.55
-33.85
-10.50
12.64
33.08
49.23
60.50
67.08
69.62
68.97
65.99
61.55
56.47
51.51
47.18
43.74
41.14
39.13
37.37
35.59
33.67
31.68
29.83
28.29
27.12
26.08
24.72
22.54
19.25
14.95
10.12
5.45
1.47
-1.69
-4.33
-7.03
-10.37
-14.59
-19.52
-24.64
-29.41
-33.45
-36.79
-39.84
-43.29
-47.87
-54.15
-62.40
-72.33
-82.86
-92.00
-97.11
-95.42
-84.98
-65.51
-38.84
-8.44
21.51
47.39
67.02
79.86
86.55
88.27
86.19
81.29
74.51
66.91
59.60
53.52
49.16
46.40
44.64
43.12
41.25
38.83
36.04
33.33
31.16
29.81
29.19
28.89
28.29
26.75
23.87
19.65
14.48
9.00
3.84
-0.62
-4.35
-7.65
-10.97
-14.75
-19.20
-24.30
-29.74
-35.04
-39.75
-43.60
-46.65
-49.35
-52.48
-56.84
-63.03
-70.96
-79.77
-87.63
-92.11
-90.72
-81.75
-64.92
-41.71
-15.06
11.40
34.45
52.01
63.42
69.19
70.42
68.25
63.68
57.58
50.82
44.34
38.90
34.97
32.49
31.00
29.84
28.49
26.84
25.15
23.90
23.39
23.55
23.76
23.15
20.88
16.65
10.81
4.28
-1.82
-6.75
-10.40
-13.34
-16.48
-20.61
-26.05
-32.47
-39.15
-45.28
-50.36
-54.42
-57.98
-61.89
-67.11
-74.40
-84.08
-95.62
-107.42
-116.77
-120.33
-115.00
-99.14
-73.34
-40.57
-5.41
27.36
54.05
72.87
83.85
88.17
87.38
82.83
75.63
66.81
57.56
49.19
42.81
39.07
37.92
38.67
40.32
41.92
42.85
42.98
42.53
41.88
41.33
40.87
40.21
38.87
36.40
32.49
27.19
20.84
13.97
7.19
0.93
-4.70
-9.95
-15.28
-21.21
-28.03
-35.59
-43.36
-50.58
-56.67
-61.49
-65.44
-69.41
-74.53
-81.85
-92.10
-105.29
-120.33
-134.77
-144.95
-146.81
-137.11
-114.68
-81.17
-40.63
1.59
40.47
72.47
95.97
110.98
118.41
119.49
115.54
108.00
98.45
88.51
79.52
72.29
67.07
63.66
61.68
60.76
60.60
61.02
61.76
62.49
62.80
62.24
60.52
57.50
53.32
48.27
42.74
37.06
31.39
25.68
19.75
13.40
6.60
-0.42
-7.26
-13.50
-18.96
-23.77
-28.42
-33.50
-39.42
-46.25
-53.59
-60.76
-67.14
-72.44
-76.88
-81.28
-86.79
-94.61
-105.43
-118.84
-132.92
-144.27
-148.58
-142.03
-122.59
-91.08
-51.20
-8.44
31.50
64.32
87.91
102.23
108.52
108.44
103.55
95.25
84.95
74.19
64.51
57.12
52.61
50.84
51.10
52.45
54.03
55.29
56.01
56.26
56.14
55.72
54.87
53.33
50.79
47.00
41.92
35.67
28.56
20.99
13.38
6.14
-0.40
-6.13
-11.17
-15.97
-21.10
-27.07
-34.03
-41.66
-49.22
-55.95
-61.40
-65.65
-69.40
-73.70
-79.72
-88.36
-99.82
-113.33
-126.74
-136.74
-139.35
-131.20
-110.70
-78.96
-39.68
1.84
40.27
71.66
94.19
107.88
113.86
113.60
108.44
99.63
88.58
76.94
66.41
58.34
53.28
50.92
50.33
50.48
50.60
50.52
50.48
50.81
51.59
52.45
52.64
51.35
48.06
42.82
36.29
29.44
23.20
18.04
13.81
9.85
5.32
-0.33
-7.16
-14.63
-21.93
-28.30
-33.39
-37.45
-41.17
-45.42
-50.89
-57.74
-65.55
-73.48
-80.58
-86.26
-90.56
-94.23
-98.61
-105.20
-115.20
-128.90
-145.11
-160.88
-171.78
-172.85
-160.21
-132.59
-92.17
-44.12
4.87
48.63
83.08
106.79
120.42
125.65
124.23
117.60
107.12
94.39
81.35
69.96
61.77
57.41
56.60
58.32
61.35
64.71
67.86
70.75
73.49
76.14
78.40
79.63
79.02
75.94
70.24
62.44
53.52
44.68
36.86
30.46
25.27
20.54
15.41
9.25
1.91
-6.14
-14.08
-20.99
-26.29
-29.96
-32.66
-35.37
-39.01
-44.05
-50.25
-56.86
-62.92
-67.72
-71.16
-73.78
-76.57
-80.75
-87.41
-97.21
-110.00
-124.39
-137.59
-145.62
-144.28
-130.49
-103.59
-65.98
-22.56
20.63
58.22
86.79
105.35
114.69
116.53
112.63
104.48
93.41
80.86
68.47
57.78
49.94
45.32
43.54
43.76
45.03
46.72
48.57
50.62
52.83
54.95
56.40
56.43
54.43
50.25
44.27
37.31
30.27
23.78
17.93
12.34
6.39
-0.34
-7.80
-15.46
-22.48
-28.20
-32.43
-35.61
-38.64
-42.41
-47.43
-53.54
-60.02
-65.92
-70.53
-73.76
-76.25
-79.20
-84.00
-91.81
-103.00
-116.73
-130.67
-141.20
-144.09
-135.79
-114.70
-81.99
-41.58
1.01
40.22
71.96
94.31
107.38
112.49
111.28
105.25
95.67
83.87
71.36
59.74
50.38
44.02
40.60
39.45
39.66
40.50
41.69
43.36
45.64
48.44
51.17
52.96
52.98
50.83
46.78
41.64
36.39
31.74
27.86
24.37
20.60
16.01
10.38
4.01
-2.53
-8.68
-14.15
-19.04
-23.75
-28.77
-34.35
-40.36
-46.36
-51.79
-56.26
-59.82
-62.93
-66.44
-71.32
-78.39
-88.02
-99.67
-111.67
-121.09
-124.28
-117.86
-100.00
-71.28
-34.95
4.01
40.30
69.85
90.63
102.65
107.26
106.20
101.02
92.97
83.19
72.83
63.05
54.69
48.09
43.05
39.02
35.50
32.31
29.63
27.87
27.30
27.84
28.98
29.96
30.00
28.61
25.74
21.77
17.27
12.79
8.64
4.78
0.93
-3.25
-7.94
-13.05
-18.22
-23.05
-27.23
-30.76
-33.93
-37.22
-41.04
-45.58
-50.64
-55.82
-60.60
-64.75
-68.37
-72.00
-76.45
-82.58
-90.94
-101.36
-112.63
-122.38
-127.41
-124.50
-111.56
-88.49
-57.63
-23.10
10.36
38.77
59.76
72.77
78.58
78.57
74.26
67.07
58.41
49.65
42.06
36.52
33.34
32.24
32.53
33.40
34.26
34.88
35.39
36.09
37.17
38.49
39.48
39.35
37.42
33.41
27.67
21.04
14.52
8.78
3.96
-0.41
-5.08
-10.75
-17.69
-25.61
-33.83
-41.49
-47.96
-53.00
-56.99
-60.79
-65.58
-72.58
-82.58
-95.40
-109.52
-121.93
-128.72
-126.10
-111.72
-85.73
-50.98
-12.23
25.21
57.05
80.96
96.51
104.66
106.77
104.11
97.70
88.54
77.90
67.22
57.85
50.63
45.72
42.61
40.53
38.74
36.88
34.95
33.18
31.84
31.02
30.52
29.84
28.37
25.54
21.05
14.96
7.75
0.14
-7.12
-13.49
-18.82
-23.45
-28.02
-33.32
-39.94
-47.98
-56.97
-66.00
-74.09
-80.62
-85.62
-89.82
-94.49
-101.09
-110.86
-124.31
-140.76
-157.90
-171.79
-177.57
-170.80
-149.08
-113.26
-67.48
-18.08
28.39
66.98
95.38
113.69
123.47
126.58
124.58
118.65
109.88
99.58
89.24
80.17
73.25
68.70
66.18
65.02
64.54
64.18
63.64
62.84
61.78
60.45
58.75
56.41
53.05
48.35
42.15
34.63
26.26
17.68
9.51
2.13
-4.39
-10.25
-15.89
-21.88
-28.72
-36.74
-45.89
-55.73
-65.45
-74.19
-81.30
-86.74
-91.19
-95.96
-102.65
-112.73
-126.87
-144.44
-163.07
-178.72
-186.44
-181.62
-161.49
-126.34
-79.69
-27.44
23.75
68.23
102.55
125.65
138.32
142.18
139.02
130.45
118.06
103.50
88.63
75.19
64.54
57.35
53.53
52.37
52.90
54.20
55.56
56.56
57.05
56.90
56.01
54.14
50.94
46.07
39.41
31.17
21.94
12.67
4.29
-2.51
-7.60
-11.46
-15.05
-19.43
-25.33
-32.85
-41.41
-50.03
-57.72
-63.95
-68.78
-72.88
-77.26
-83.09
-91.60
-103.71
-119.62
-138.07
-155.94
-168.44
-170.26
-157.27
-128.15
-85.10
-33.28
20.73
70.86
112.82
144.51
165.58
176.73
179.14
174.21
163.63
149.40
133.69
118.48
105.25
94.81
87.21
82.02
78.60
76.47
75.31
75.02
75.52
76.46
77.22
76.97
74.97
70.85
64.77
57.35
49.35
41.33
33.45
25.41
16.78
7.28
-2.96
-13.36
-23.14
-31.73
-39.03
-45.47
-51.85
-58.96
-67.16
-76.29
-85.63
-94.35
-101.74
-107.69
-112.73
-118.05
-125.24
-135.83
-150.58
-168.71
-187.46
-202.28
-207.73
-199.13
-174.06
-133.40
-81.29
-24.04
31.53
79.70
116.91
141.93
155.40
159.13
155.37
146.41
134.39
121.24
108.60
97.68
89.21
83.32
79.62
77.49
76.37
75.99
76.36
77.56
79.49
81.61
83.05
82.79
80.09
74.77
67.31
58.67
49.84
41.43
33.48
25.51
16.91
7.35
-2.96
-13.29
-22.81
-30.94
-37.73
-43.78
-50.00
-57.17
-65.49
-74.56
-83.54
-91.48
-97.78
-102.37
-105.84
-109.37
-114.60
-123.16
-136.01
-152.63
-170.35
-184.44
-189.12
-179.35
-152.72
-110.66
-58.15
-2.35
49.69
92.75
124.38
144.54
154.58
156.21
150.98
140.31
125.79
109.42
93.39
79.68
69.53
63.17
59.91
58.66
58.39
58.49
58.87
59.66
60.96
62.51
63.66
63.59
61.54
57.08
50.22
41.38
31.26
20.73
10.62
1.51
-6.39
-13.39
-20.20
-27.70
-36.49
-46.57
-57.27
-67.47
-76.06
-82.44
-86.75
-89.91
-93.32
-98.51
-106.83
-118.96
-134.38
-150.84
-164.38
-170.05
-163.36
-142.03
-107.07
-62.76
-15.29
29.14
66.16
93.90
112.49
123.04
126.61
123.91
115.62
102.97
88.02
73.29
61.02
52.40
47.37
44.84
43.53
42.60
42.05
42.41
44.19
47.30
50.81
53.23
53.02
49.25
41.92
31.93
20.73
9.79
0.04
-8.35
-15.97
-23.89
-33.14
-44.27
-57.05
-70.57
-83.62
-95.07
-104.44
-111.94
-118.53
-125.54
-134.40
-146.19
-161.03
-177.48
-192.27
-200.63
-197.39
-178.82
-144.11
-96.08
-40.46
15.84
66.78
108.51
139.67
160.65
172.50
176.33
173.10
164.03
150.86
135.76
120.97
108.22
98.44
91.66
87.33
84.68
83.07
82.05
81.35
80.73
79.86
78.34
75.74
71.82
66.48
59.82
52.09
43.55
34.46
24.98
15.26
5.48
-4.09
-13.16
-21.55
-29.30
-36.72
-44.26
-52.31
-60.89
-69.59
-77.69
-84.46
-89.58
-93.37
-96.82
-101.41
-108.79
-120.21
-135.90
-154.34
-172.01
-183.81
-184.32
-169.68
-139.08
-95.40
-44.46
6.86
52.60
89.08
115.16
131.48
139.36
140.13
134.95
125.11
112.36
98.80
86.49
76.82
70.25
66.40
64.37
63.38
63.00
63.21
64.12
65.67
67.38
68.38
67.70
64.63
59.03
51.45
42.86
34.32
26.49
19.40
12.55
5.21
-3.09
-12.30
-21.81
-30.76
-38.49
-44.87
-50.41
-55.97
-62.39
-70.04
-78.69
-87.59
-95.81
-102.69
-108.12
-112.73
-117.76
-124.86
-135.60
-150.80
-169.69
-189.46
-205.34
-211.61
-203.34
-178.13
-137.19
-85.27
-29.28
23.79
68.60
102.37
124.80
137.10
141.04
138.34
130.55
119.25
106.24
93.43
82.54
74.65
69.97
67.90
67.46
67.73
68.19
68.73
69.42
70.14
70.39
69.32
66.11
60.26
51.90
41.75
30.82
20.05
10.05
0.99
-7.29
-15.03
-22.35
-29.21
-35.53
-41.30
-46.72
-52.14
-57.98
-64.56
-71.99
-80.16
-88.84
-97.75
-106.69
-115.56
-124.42
-133.65
-144.02
-156.50
-171.70
-189.03
-206.13
-219.00
-222.93
-214.03
-190.52
-153.20
-105.02
-50.13
7.02
62.22
111.58
151.70
180.00
195.36
198.54
192.13
179.72
164.97
150.69
138.61
129.57
123.84
121.43
122.03
125.03
129.41
133.87
137.19
138.35
136.84
132.66
126.18
118.05
108.89
99.14
88.90
78.03
66.20
53.24
39.31
25.00
11.23
-1.09
-11.35
-19.55
-26.30
-32.61
-39.46
-47.44
-56.44
-65.77
-74.44
-81.65
-87.16
-91.42
-95.57
-101.22
-110.09
-123.36
-141.00
-160.97
-179.10
-189.71
-187.23
-168.24
-132.92
-85.34
-32.30
18.93
62.63
95.74
117.78
129.79
133.25
129.42
119.42
104.71
87.41
70.14
55.52
45.40
40.43
39.91
42.33
45.97
49.50
52.31
54.40
56.06
57.45
58.36
58.21
56.27
51.92
44.94
35.61
24.68
13.28
2.54
-6.69
-14.18
-20.40
-26.34
-33.14
-41.52
-51.47
-62.14
-72.24
-80.55
-86.51
-90.45
-93.47
-97.13
-103.02
-112.48
-126.13
-143.44
-162.23
-178.49
-186.97
-182.45
-161.57
-124.32
-74.43
-18.48
36.09
83.07
118.85
142.54
155.29
159.01
155.58
146.57
133.43
117.89
101.93
87.63
76.71
70.04
67.56
68.38
71.25
74.95
78.56
81.53
83.53
84.28
83.44
80.73
75.95
69.18
60.68
50.91
40.33
29.38
18.40
7.74
-2.29
-11.50
-19.83
-27.53
-35.08
-43.01
-51.74
-61.23
-71.04
-80.40
-88.52
-94.91
-99.63
-103.31
-107.19
-112.83
-121.83
-135.18
-152.47
-171.29
-187.11
-194.19
-187.19
-163.12
-122.66
-70.27
-12.92
41.97
88.55
123.58
146.47
158.39
161.19
156.74
146.74
132.93
117.22
101.70
88.23
78.12
71.84
69.04
68.89
70.44
72.92
75.82
78.77
81.36
82.98
82.93
80.57
75.65
68.39
59.52
49.93
40.43
31.37
22.62
13.79
4.58
-4.97
-14.36
-22.96
-30.31
-36.51
-42.16
-48.14
-55.08
-63.06
-71.56
-79.69
-86.64
-92.10
-96.36
-100.37
-105.41
-112.91
-123.98
-138.79
-155.97
-172.25
-182.79
-182.37
-167.04
-135.82
-91.33
-39.26
13.29
59.88
96.26
120.86
134.25
138.17
134.57
125.26
111.91
96.31
80.38
66.01
54.64
47.01
43.04
42.06
43.10
45.27
47.93
50.71
53.36
55.56
56.79
56.49
54.17
49.68
43.36
35.88
28.02
20.34
13.00
5.88
-1.27
-8.54
-15.76
-22.58
-28.73
-34.25
-39.50
-45.04
-51.28
-58.17
-65.22
-71.64
-76.79
-80.53
-83.40
-86.54
-91.38
-99.32
-111.09
-126.32
-143.00
-157.44
-164.87
-160.65
-141.98
-109.11
-65.71
-17.86
27.74
65.76
93.30
109.96
116.98
116.13
109.05
97.15
81.93
65.23
49.15
35.63
25.95
20.39
18.31
18.55
19.92
21.63
23.39
25.28
27.46
29.86
32.03
33.19
32.43
29.07
22.92
14.40
4.45
-5.72
-15.09
-23.21
-30.35
-37.33
-45.17
-54.48
-65.11
-76.17
-86.32
-94.38
-99.81
-102.99
-105.06
-107.56
-112.10
-120.01
-132.02
-147.83
-165.58
-181.75
-191.51
-190.00
-173.90
-142.85
-99.78
-50.16
-0.27
44.63
81.43
109.21
128.55
140.56
146.21
146.30
141.74
133.83
124.25
114.85
107.16
102.08
99.76
99.67
100.94
102.61
103.84
104.10
103.10
100.78
97.15
92.25
86.05
78.53
69.64
59.49
48.36
36.71
25.18
14.32
4.51
-4.29
-12.48
-20.71
-29.56
-39.22
-49.38
-59.27
-68.03
-75.06
-80.38
-84.59
-88.79
-94.26
-102.18
-113.52
-128.51
-146.20
-163.99
-177.67
-182.20
-173.22
-148.74
-110.18
-62.16
-11.21
36.25
75.54
104.52
123.13
132.52
134.10
129.20
119.12
105.49
90.41
76.13
64.66
57.23
54.07
54.52
57.44
61.61
66.04
70.10
73.36
75.48
76.13
75.01
71.94
66.93
60.20
52.11
43.09
33.50
23.70
13.97
4.59
-4.21
-12.28
-19.60
-26.40
-33.06
-40.06
-47.71
-56.08
-64.81
-73.28
-80.76
-86.83
-91.57
-95.74
-100.74
-108.26
-119.77
-135.71
-154.75
-173.44
-186.68
-188.97
-176.20
-147.22
-104.43
-53.16
-0.09
48.63
88.75
118.31
137.27
146.67
147.94
142.62
132.41
119.29
105.46
93.06
83.69
78.11
76.11
76.76
78.87
81.52
84.16
86.68
88.99
90.76
91.34
89.90
85.84
79.01
69.97
59.70
49.30
39.56
30.77
22.65
14.60
6.10
-3.01
-12.39
-21.33
-29.12
-35.42
-40.48
-45.11
-50.32
-56.87
-64.92
-73.97
-83.05
-91.25
-98.09
-103.80
-109.27
-115.90
-125.19
-138.23
-154.97
-173.61
-190.41
-200.15
-197.53
-178.87
-143.65
-95.09
-39.38
16.12
64.94
102.99
128.94
143.56
148.65
146.09
137.56
124.65
109.19
93.34
79.27
68.75
62.64
60.73
62.06
65.37
69.53
73.77
77.61
80.64
82.40
82.37
80.12
75.57
69.06
61.30
53.05
44.86
36.87
28.82
20.33
11.20
1.67
-7.61
-15.78
-22.26
-27.03
-30.71
-34.36
-38.95
-44.99
-52.26
-60.01
-67.29
-73.44
-78.37
-82.69
-87.53
-94.40
-104.65
-118.96
-136.51
-154.55
-168.44
-172.71
-162.80
-136.83
-96.65
-47.49
3.58
49.89
86.78
112.38
127.06
132.42
130.30
122.30
109.92
94.80
78.92
64.33
52.72
45.07
41.41
41.01
42.81
45.74
49.05
52.29
55.28
57.79
59.46
59.83
58.48
55.19
50.05
43.46
35.88
27.74
19.31
10.78
2.32
-5.76
-13.15
-19.70
-25.54
-31.17
-37.18
-43.98
-51.54
-59.32
-66.53
-72.51
-77.08
-80.72
-84.43
-89.56
-97.47
-109.15
-124.76
-143.02
-160.86
-173.58
-175.95
-163.79
-135.65
-93.69
-43.23
8.85
56.18
94.45
121.92
138.87
146.54
146.29
139.34
127.04
111.27
94.43
79.16
67.57
60.80
58.73
60.18
63.55
67.41
70.84
73.56
75.63
77.05
77.50
76.30
72.67
66.17
57.03
46.14
34.85
24.38
15.38
7.72
0.64
-6.80
-15.20
-24.45
-33.76
-42.03
-48.46
-52.96
-56.31
-59.83
-64.84
-72.09
-81.47
-92.14
-102.90
-112.70
-121.04
-128.17
-135.03
-143.04
-153.84
-168.71
-187.79
-209.35
-229.50
-242.67
-243.01
-226.34
-191.73
-142.09
-83.43
-22.98
32.79
79.61
115.76
141.47
157.91
166.39
168.13
164.41
156.84
147.43
138.28
131.17
127.05
125.88
126.81
128.59
130.15
130.88
130.75
130.01
128.90
127.26
124.53
119.87
112.65
102.67
90.48
77.19
64.14
52.43
42.58
34.36
27.02
19.57
11.26
1.88
-8.10
-17.73
-25.94
-32.01
-35.94
-38.50
-40.98
-44.70
-50.45
-58.15
-66.95
-75.57
-82.92
-88.60
-93.05
-97.40
-103.10
-111.60
-123.87
-139.99
-158.57
-176.42
-188.68
-189.92
-175.83
-144.99
-99.85
-46.21
8.48
57.38
96.02
122.81
138.47
144.76
143.52
136.25
124.36
109.56
93.99
79.97
69.41
63.27
61.40
62.66
65.54
68.77
71.64
74.11
76.41
78.65
80.48
81.11
79.62
75.38
68.45
59.55
49.89
40.66
32.62
25.88
19.90
13.83
6.92
-1.09
-9.84
-18.43
-25.83
-31.30
-34.79
-37.01
-39.18
-42.58
-47.92
-55.08
-63.12
-70.78
-77.00
-81.50
-84.86
-88.33
-93.44
-101.56
-113.47
-128.82
-145.74
-160.72
-169.04
-166.06
-148.78
-117.20
-74.64
-26.92
19.49
59.36
89.78
110.14
121.30
124.60
121.19
112.24
99.15
83.87
68.73
55.88
46.73
41.69
40.26
41.37
43.91
47.02
50.23
53.32
56.21
58.67
60.21
60.16
57.86
52.98
45.80
37.22
28.49
20.81
14.72
9.97
5.59
0.41
-6.36
-14.68
-23.71
-32.15
-38.88
-43.45
-46.33
-48.68
-51.80
-56.61
-63.21
-70.93
-78.63
-85.24
-90.19
-93.72
-96.76
-100.74
-107.17
-117.29
-131.42
-148.42
-165.35
-177.64
-180.11
-168.56
-141.37
-100.47
-50.96
0.38
47.08
84.68
111.41
127.71
135.14
135.42
129.96
120.00
107.00
92.82
79.51
68.81
61.70
58.17
57.45
58.44
60.25
62.40
64.82
67.57
70.53
73.18
74.67
74.08
70.73
64.52
55.98
46.18
36.36
27.55
20.26
14.29
8.90
3.18
-3.58
-11.43
-19.74
-27.42
-33.42
-37.25
-39.27
-40.63
-42.72
-46.65
-52.71
-60.32
-68.35
-75.65
-81.52
-85.99
-89.77
-93.99
-100.01
-109.08
-121.98
-138.44
-156.47
-172.19
-180.40
-176.07
-156.14
-120.99
-74.68
-23.74
24.87
65.79
96.35
116.43
127.40
130.96
128.46
120.92
109.51
95.89
82.12
70.25
61.71
56.93
55.36
55.93
57.52
59.43
61.49
63.79
66.38
68.88
70.50
70.28
67.47
61.95
54.30
45.61
37.02
29.32
22.63
16.54
10.34
3.46
-4.24
-12.37
-20.19
-26.93
-32.12
-35.86
-38.83
-42.06
-46.48
-52.56
-59.98
-67.82
-74.87
-80.24
-83.73
-86.05
-88.61
-93.17
-101.22
-113.39
-128.81
-144.75
-156.89
-160.22
-150.64
-126.47
-89.36
-44.04
3.15
46.17
80.86
105.50
120.37
126.75
126.07
119.53
108.42
94.33
79.24
65.24
53.98
46.32
42.22
41.08
42.05
44.37
47.47
50.85
54.04
56.49
57.70
57.35
55.37
51.89
47.16
41.39
34.74
27.33
19.31
10.91
2.44
-5.71
-13.25
-20.08
-26.39
-32.63
-39.32
-46.81
-55.01
-63.38
-71.11
-77.48
-82.29
-85.94
-89.42
-93.97
-100.84
-110.97
-124.58
-140.79
-157.11
-169.54
-173.32
-164.27
-140.48
-103.25
-57.05
-8.17
37.21
74.65
102.15
119.82
128.84
130.59
126.25
116.93
104.10
89.70
75.94
64.72
57.21
53.57
53.15
54.93
57.87
61.28
64.76
68.06
70.77
72.33
72.09
69.53
64.58
57.69
49.65
41.33
33.28
25.55
17.81
9.59
0.72
-8.52
-17.48
-25.47
-32.17
-37.79
-43.05
-48.78
-55.54
-63.28
-71.40
-78.97
-85.22
-89.98
-93.79
-97.86
-103.78
-113.09
-126.65
-143.97
-162.69
-178.61
-186.38
-181.03
-159.67
-122.71
-74.10
-20.22
31.99
76.89
111.27
134.42
147.33
151.67
149.15
141.28
129.57
115.79
101.85
89.57
80.20
74.26
71.46
71.03
72.05
73.78
75.77
77.73
79.37
80.25
79.84
77.60
73.27
66.88
58.81
49.63
39.90
30.03
20.30
10.89
1.95
-6.34
-13.89
-20.78
-27.34
-34.02
-41.29
-49.29
-57.81
-66.26
-73.92
-80.23
-85.11
-89.09
-93.20
-98.85
-107.50
-120.15
-136.69
-155.29
-172.16
-182.14
-180.06
-162.55
-129.48
-84.36
-33.38
16.47
59.45
92.24
114.10
125.97
129.47
126.11
117.22
104.25
89.08
73.96
61.13
52.22
47.75
47.17
49.08
51.94
54.62
56.70
58.37
60.04
61.85
63.34
63.56
61.35
55.97
47.37
36.40
24.49
13.17
3.56
-4.09
-10.40
-16.58
-23.86
-32.95
-43.66
-54.90
-65.20
-73.24
-78.49
-81.44
-83.47
-86.44
-92.21
-102.06
-116.23
-133.36
-150.32
-162.50
-164.87
-153.57
-127.38
-88.47
-41.87
6.05
49.46
84.51
109.64
125.09
131.84
130.97
123.52
110.79
94.74
77.92
63.00
52.08
46.10
44.65
46.34
49.44
52.57
55.10
57.11
58.97
60.80
62.17
62.06
59.32
53.20
43.76
31.99
19.47
7.78
-2.08
-10.05
-16.97
-24.14
-32.71
-43.10
-54.82
-66.65
-77.13
-85.19
-90.61
-94.11
-97.17
-101.68
-109.46
-121.65
-138.14
-156.95
-174.10
-184.30
-182.31
-164.76
-131.56
-86.19
-34.77
15.89
60.20
94.91
119.15
133.59
139.44
137.87
130.05
117.48
102.26
86.98
74.17
65.70
62.29
63.39
67.58
73.12
78.54
82.98
86.23
88.47
89.87
90.23
88.91
85.03
77.92
67.50
54.55
40.47
26.90
15.08
5.41
-2.62
-10.16
-18.43
-28.22
-39.43
-51.24
-62.42
-71.92
-79.32
-85.03
-90.19
-96.29
-104.85
-117.08
-133.44
-153.18
-173.86
-191.30
-200.30
-196.15
-176.34
-141.75
-96.71
-47.68
-1.26
37.64
66.65
85.65
95.86
98.81
95.81
88.15
77.51
66.12
56.63
51.35
51.69
57.58
67.67
79.83
91.90
102.38
110.57
116.41
120.09
121.66
120.92
117.56
111.36
102.38
91.06
78.08
64.29
50.61
37.86
26.60
16.97
8.61
0.84
-7.14
-15.87
-25.35
-35.05
-44.18
-51.99
-58.19
-63.02
-67.26
-71.97
-78.40
-87.69
-100.64
-117.09
-135.38
-152.04
-162.26
-161.11
-145.36
-114.84
-72.89
-25.37
21.18
61.44
92.38
113.31
124.93
128.42
124.85
115.33
101.41
85.33
69.81
57.35
49.57
46.75
47.93
51.37
55.35
58.63
60.73
61.79
62.19
62.15
61.43
59.42
55.32
48.62
39.46
28.65
17.52
7.38
-1.01
-7.73
-13.61
-19.85
-27.39
-36.46
-46.48
-56.30
-64.71
-70.92
-74.93
-77.52
-80.00
-83.86
-90.48
-100.75
-114.60
-130.56
-145.44
-154.78
-153.89
-139.49
-111.10
-71.56
-26.30
18.36
57.10
86.88
107.01
118.36
122.30
119.93
112.12
99.95
85.13
70.00
57.06
48.17
44.05
44.15
47.00
50.86
54.37
56.84
58.17
58.61
58.35
57.33
55.24
51.62
46.13
38.67
29.47
19.05
8.18
-2.32
-11.71
-19.63
-26.22
-32.10
-38.16
-45.15
-53.33
-62.30
-71.14
-78.84
-84.77
-88.94
-92.08
-95.38
-100.24
-107.95
-119.39
-134.50
-151.69
-167.53
-177.17
-175.49
-158.97
-127.19
-83.27
-33.17
16.35
59.60
93.33
116.72
130.58
136.23
134.93
127.80
116.23
102.14
87.89
75.73
67.22
62.87
62.13
63.85
66.75
69.92
72.89
75.46
77.46
78.52
78.01
75.26
69.88
62.02
52.46
42.41
33.02
24.98
18.26
12.11
5.58
-2.05
-10.78
-19.88
-28.30
-35.16
-40.29
-44.35
-48.54
-54.00
-61.28
-70.11
-79.52
-88.34
-95.74
-101.57
-106.47
-111.79
-119.24
-130.38
-145.87
-164.61
-183.33
-196.84
-199.29
-186.12
-155.87
-111.01
-57.35
-2.25
47.63
87.92
116.97
135.24
144.18
145.39
140.34
130.59
118.02
104.88
93.31
84.94
80.43
79.44
80.91
83.52
86.15
88.17
89.40
90.02
90.20
89.90
88.73
86.06
81.29
74.13
64.87
54.36
43.75
34.11
25.99
19.27
13.29
7.20
0.40
-7.17
-15.00
-22.25
-28.15
-32.39
-35.33
-37.90
-41.34
-46.70
-54.40
-64.06
-74.55
-84.51
-92.83
-99.15
-104.01
-108.69
-114.85
-124.01
-137.10
-153.85
-172.32
-188.77
-198.09
-195.10
-176.26
-141.12
-92.97
-37.99
16.57
64.51
102.11
128.37
144.24
151.40
151.44
145.58
135.04
121.47
106.95
93.69
83.42
76.98
74.09
73.72
74.62
75.83
76.88
77.81
78.75
79.67
80.11
79.31
76.43
70.98
63.02
53.25
42.81
32.88
24.28
17.27
11.48
6.11
0.37
-6.22
-13.60
-21.17
-28.05
-33.42
-36.90
-38.77
-39.91
-41.53
-44.71
-49.98
-57.06
-65.04
-72.72
-79.17
-84.17
-88.21
-92.38
-98.04
-106.47
-118.47
-133.86
-150.92
-166.16
-174.76
-171.83
-154.09
-121.42
-77.25
-27.67
20.47
61.65
92.83
113.47
124.66
127.89
124.52
115.67
102.71
87.53
72.39
59.49
50.32
45.38
44.15
45.59
48.56
52.22
56.18
60.24
64.14
67.37
69.18
68.78
65.78
60.33
53.19
45.41
37.91
31.08
24.74
18.34
11.30
3.46
-4.84
-12.87
-19.92
-25.61
-30.17
-34.32
-38.96
-44.74
-51.78
-59.53
-67.04
-73.39
-78.12
-81.50
-84.47
-88.45
-94.94
-105.05
-118.89
-135.03
-150.24
-159.87
-159.07
-144.36
-115.19
-74.43
-27.68
18.47
58.42
88.88
109.03
119.82
122.83
119.56
111.26
99.22
85.06
70.72
58.05
48.40
42.27
39.36
38.88
39.99
42.06
44.77
47.87
51.07
53.82
55.39
55.08
52.50
47.73
41.30
33.97
26.41
18.98
11.62
4.05
-3.95
-12.33
-20.69
-28.46
-35.18
-40.78
-45.64
-50.50
-56.04
-62.62
-70.07
-77.76
-84.84
-90.70
-95.25
-99.03
-103.20
-109.26
-118.66
-132.16
-149.08
-166.82
-180.90
-185.86
-176.95
-151.90
-112.12
-62.46
-9.79
39.14
79.52
109.21
128.32
138.10
140.00
135.22
124.99
110.93
95.18
80.09
67.60
58.81
53.83
51.97
52.35
54.20
57.03
60.53
64.27
67.62
69.74
69.82
67.37
62.44
55.58
47.71
39.72
32.22
25.25
18.43
11.14
2.93
-6.18
-15.65
-24.61
-32.28
-38.40
-43.38
-48.20
-53.86
-60.99
-69.47
-78.53
-87.15
-94.52
-100.48
-105.62
-111.15
-118.63
-129.52
-144.50
-162.78
-181.62
-196.45
-201.81
-192.92
-167.39
-126.35
-74.33
-18.02
35.64
81.22
115.75
138.61
150.78
153.92
149.82
140.30
127.27
112.78
98.92
87.40
79.29
74.82
73.47
74.42
76.80
79.98
83.47
86.84
89.55
90.89
90.16
86.82
80.80
72.56
63.00
53.18
43.89
35.34
27.12
18.46
8.69
-2.31
-14.01
-25.41
-35.51
-43.85
-50.69
-56.94
-63.71
-71.75
-81.19
-91.52
-101.83
-111.26
-119.44
-126.60
-133.64
-141.98
-153.12
-168.01
-186.22
-205.28
-220.61
-226.35
-217.05
-189.62
-144.68
-86.66
-22.59
39.93
94.77
138.26
169.29
188.44
197.05
196.63
188.77
175.37
158.72
141.42
125.83
113.67
105.61
101.27
99.64
99.60
100.36
101.53
103.00
104.49
105.41
104.79
101.69
95.64
86.92
76.46
65.53
55.17
45.79
37.11
28.40
18.97
8.59
-2.35
-12.96
-22.21
-29.47
-34.73
-38.72
-42.57
-47.34
-53.61
-61.22
-69.43
-77.23
-83.85
-89.07
-93.33
-97.77
-103.93
-113.37
-127.02
-144.37
-162.89
-177.99
-184.04
-176.01
-151.44
-111.62
-61.55
-8.37
40.75
80.62
108.90
125.78
132.88
132.11
125.07
113.12
97.82
81.11
65.30
52.51
44.17
40.65
41.31
44.86
49.90
55.27
60.22
64.30
67.19
68.55
68.03
65.38
60.62
54.08
46.30
37.83
29.08
20.18
11.12
1.91
-7.27
-15.99
-23.82
-30.47
-36.11
-41.29
-46.72
-52.92
-59.85
-67.03
-73.66
-79.11
-83.27
-86.63
-90.24
-95.41
-103.47
-115.36
-131.00
-148.72
-164.96
-174.62
-172.46
-154.88
-121.52
-75.74
-23.78
27.26
71.47
105.43
128.28
140.89
144.71
141.12
131.42
117.19
100.61
84.28
70.67
61.44
57.04
56.77
59.26
63.11
67.29
71.34
75.04
78.17
80.24
80.53
78.39
73.49
66.15
57.18
47.70
38.64
30.43
22.90
15.44
7.42
-1.42
-10.79
-19.92
-27.93
-34.24
-38.94
-42.77
-46.85
-52.17
-59.17
-67.51
-76.27
-84.38
-91.06
-96.25
-100.61
-105.50
-112.60
-123.47
-138.78
-157.55
-176.65
-191.05
-194.96
-183.62
-155.15
-111.53
-58.18
-2.31
49.21
91.56
122.57
142.25
151.82
152.84
146.77
135.18
119.99
103.50
88.22
76.28
68.91
66.23
67.29
70.56
74.49
77.92
80.40
81.92
82.68
82.66
81.46
78.43
73.01
65.15
55.47
45.12
35.32
26.92
20.04
14.06
8.03
1.06
-7.18
-16.30
-25.35
-33.23
-39.18
-43.18
-45.95
-48.71
-52.68
-58.56
-66.25
-74.92
-83.42
-90.78
-96.61
-101.24
-105.56
-110.89
-118.69
-130.19
-145.79
-164.30
-182.48
-195.29
-197.00
-183.04
-151.79
-105.51
-49.84
7.82
60.47
103.24
134.00
152.93
161.50
161.55
154.85
143.14
128.34
112.60
98.07
86.54
78.99
75.50
75.28
77.15
79.92
82.74
85.16
87.04
88.36
88.93
88.36
86.09
81.58
74.58
65.32
54.51
43.21
32.51
23.24
15.66
9.48
3.98
-1.63
-7.94
-15.04
-22.51
-29.61
-35.59
-40.08
-43.30
-45.94
-49.01
-53.43
-59.65
-67.57
-76.56
-85.73
-94.21
-101.51
-107.65
-113.16
-119.16
-127.09
-138.33
-153.53
-171.71
-189.81
-202.83
-205.05
-191.84
-161.40
-115.73
-60.21
-2.05
51.78
96.20
128.75
149.32
159.22
160.30
154.42
143.43
129.24
113.97
99.69
88.16
80.44
76.68
76.23
78.02
80.96
84.22
87.30
89.91
91.85
92.80
92.38
90.16
85.83
79.34
70.93
61.18
50.90
40.89
31.78
23.87
17.08
11.01
5.18
-0.83
-7.23
-13.90
-20.51
-26.59
-31.67
-35.53
-38.33
-40.65
-43.42
-47.53
-53.51
-61.20
-69.81
-78.21
-85.42
-91.03
-95.43
-99.66
-105.14
-113.29
-125.07
-140.43
-157.76
-173.66
-183.27
-181.50
-164.68
-132.13
-86.82
-34.71
17.08
62.35
97.30
120.82
133.80
137.91
134.82
125.95
112.78
97.16
81.33
67.54
57.44
51.69
49.90
50.96
53.56
56.71
59.90
62.95
65.84
68.36
70.01
70.02
67.68
62.63
55.11
45.96
36.41
27.57
20.00
13.50
7.24
0.27
-7.94
-17.10
-26.20
-33.95
-39.49
-42.81
-44.84
-47.00
-50.61
-56.26
-63.59
-71.58
-79.03
-85.08
-89.57
-93.04
-96.53
-101.38
-108.93
-120.15
-134.98
-151.78
-166.99
-175.66
-172.76
-155.05
-122.42
-78.34
-28.83
19.36
60.69
92.02
112.61
123.34
125.69
121.18
111.24
97.50
81.97
66.89
54.30
45.59
41.18
40.55
42.64
46.26
50.47
54.61
58.28
61.06
62.46
61.98
59.23
54.15
47.13
38.79
29.85
20.81
11.85
2.83
-6.42
-15.95
-25.52
-34.70
-43.13
-50.68
-57.63
-64.48
-71.73
-79.60
-87.88
-96.09
-103.70
-110.49
-116.63
-122.82
-130.10
-139.71
-152.68
-169.32
-188.46
-207.07
-220.37
-222.89
-210.02
-179.80
-133.87
-77.27
-16.97
40.12
88.90
126.85
153.73
170.59
178.82
179.62
174.17
163.95
150.97
137.64
126.21
118.17
113.90
112.76
113.52
114.88
116.00
116.54
116.48
115.74
113.95
110.45
104.54
95.86
84.77
72.30
59.85
48.67
39.32
31.45
24.06
16.05
6.76
-3.65
-14.31
-24.07
-32.07
-38.14
-42.87
-47.29
-52.52
-59.19
-67.35
-76.44
-85.51
-93.74
-100.68
-106.57
-112.33
-119.45
-129.59
-143.86
-162.04
-181.88
-199.12
-208.29
-204.17
-183.52
-146.30
-95.90
-38.30
19.56
71.46
113.08
142.44
159.55
165.83
163.34
154.44
141.46
126.66
112.15
99.69
90.58
85.39
83.90
85.25
88.29
91.91
95.32
98.03
99.84
100.52
99.81
97.37
92.91
86.35
77.92
68.21
57.96
47.92
38.67
30.43
23.18
16.70
10.78
5.25
-0.03
-5.18
-10.37
-15.65
-20.98
-26.14
-30.87
-35.09
-39.08
-43.49
-49.06
-56.35
-65.37
-75.51
-85.81
-95.29
-103.38
-110.12
-116.13
-122.54
-130.73
-142.03
-157.18
-175.54
-194.51
-209.64
-215.40
-206.81
-181.09
-138.90
-84.36
-24.03
34.83
86.07
125.70
152.28
166.34
169.69
164.67
153.70
139.14
123.29
108.25
95.86
87.31
83.00
82.43
84.52
87.99
91.77
95.20
97.89
99.60
100.04
98.78
95.39
89.62
81.60
71.82
61.11
50.39
40.38
31.45
23.57
16.47
9.89
3.75
-1.80
-6.55
-10.49
-13.87
-17.15
-20.78
-24.86
-29.17
-33.25
-36.84
-40.07
-43.61
-48.28
-54.70
-62.86
-72.08
-81.28
-89.40
-95.85
-100.70
-104.69
-109.00
-115.07
-124.29
-137.42
-154.01
-171.73
-186.30
-192.22
-184.34
-159.76
-119.19
-67.14
-10.66
42.74
87.16
119.53
139.51
148.62
148.94
142.40
130.63
115.23
98.12
81.58
67.82
58.52
54.25
54.50
57.89
62.83
67.94
72.43
76.04
78.80
80.62
81.23
80.10
76.68
70.71
62.41
52.51
42.05
32.12
23.54
16.68
11.39
7.15
3.20
-1.12
-6.21
-12.05
-18.19
-23.93
-28.60
-31.88
-34.03
-35.87
-38.48
-42.77
-49.07
-56.94
-65.36
-73.19
-79.64
-84.61
-88.67
-92.88
-98.53
-106.81
-118.39
-132.95
-148.63
-161.87
-167.89
-162.00
-141.32
-106.11
-60.11
-9.57
38.68
79.15
108.83
127.24
135.59
135.64
129.10
117.47
102.39
85.79
69.84
56.52
47.13
42.02
40.60
41.76
44.37
47.60
51.04
54.62
58.21
61.53
63.97
64.81
63.46
59.71
53.80
46.36
38.20
30.03
22.36
15.40
9.12
3.39
-1.97
-7.13
-12.28
-17.56
-23.00
-28.50
-33.71
-38.19
-41.60
-43.94
-45.69
-47.75
-51.09
-56.31
-63.31
-71.36
-79.27
-86.01
-91.10
-94.84
-98.28
-102.95
-110.48
-121.97
-137.32
-154.68
-170.25
-178.92
-175.62
-157.09
-123.22
-77.48
-25.96
24.41
67.84
100.86
122.60
133.96
136.68
132.52
123.05
109.84
94.65
79.44
66.09
56.00
49.82
47.40
48.07
50.94
55.16
60.07
65.19
70.01
73.99
76.56
77.18
75.55
71.70
65.93
58.77
50.82
42.63
34.66
27.22
20.49
14.48
9.09
4.11
-0.68
-5.48
-10.39
-15.40
-20.38
-25.12
-29.45
-33.24
-36.60
-39.88
-43.65
-48.53
-54.90
-62.72
-71.41
-80.08
-87.78
-93.94
-98.62
-102.63
-107.39
-114.60
-125.58
-140.59
-158.12
-174.63
-185.03
-183.99
-167.70
-135.32
-89.62
-36.35
17.47
65.49
103.49
129.89
145.21
151.14
149.60
142.32
130.88
116.86
101.98
87.93
76.07
67.18
61.40
58.39
57.62
58.65
61.13
64.74
69.01
73.22
76.48
77.91
76.94
73.40
67.63
60.28
52.06
43.59
35.25
27.26
19.69
12.65
6.23
0.46
-4.78
-9.76
-14.79
-20.08
-25.57
-30.94
-35.68
-39.48
-42.39
-44.90
-47.85
-52.04
-57.87
-65.11
-73.03
-80.65
-87.23
-92.53
-96.92
-101.25
-106.64
-114.31
-125.18
-139.49
-156.13
-172.20
-183.15
-183.74
-169.71
-139.48
-95.17
-42.24
12.07
60.94
99.69
126.56
142.19
148.45
147.34
140.47
129.13
114.74
99.06
84.06
71.52
62.53
57.31
55.23
55.38
56.90
59.27
62.33
66.00
70.01
73.74
76.32
76.85
74.72
69.83
62.61
53.93
44.85
36.29
28.85
22.62
17.21
11.93
6.10
-0.70
-8.38
-16.36
-23.78
-29.83
-34.14
-36.96
-39.08
-41.59
-45.43
-51.01
-58.06
-65.73
-72.95
-78.86
-83.19
-86.40
-89.57
-94.05
-101.18
-111.79
-125.76
-141.52
-155.86
-164.32
-162.27
-146.42
-116.23
-74.44
-26.44
21.30
63.06
95.20
116.54
127.75
130.41
126.21
116.62
103.02
86.92
70.05
54.12
40.51
29.99
22.66
18.11
15.80
15.27
16.21
18.33
21.16
23.94
25.68
25.47
22.81
17.82
11.22
4.08
-2.55
-7.98
-12.00
-14.82
-16.86
-18.40
-19.46
-19.77
-18.97
-16.89
-13.84
-10.59
-8.23
-7.74
-9.63
-13.69
-19.15
-24.96
-30.34
-35.06
-39.55
-44.81
-52.07
-62.33
-75.84
-91.59
-107.04
-118.40
-121.39
-112.61
-90.80
-57.50
-16.82
25.65
64.53
95.94
118.07
130.96
135.66
133.46
125.51
112.97
97.26
80.18
63.81
49.93
39.61
32.97
29.36
27.75
27.26
27.42
28.20
29.66
31.77
34.07
35.78
35.98
33.92
29.34
22.53
14.34
5.88
-1.84
-8.27
-13.50
-18.20
-23.36
-29.79
-37.84
-47.12
-56.73
-65.55
-72.71
-77.95
-81.70
-84.96
-89.06
-95.29
-104.56
-116.89
-130.92
-143.71
-151.13
-148.79
-133.61
-105.08
-65.77
-20.73
24.04
63.42
94.29
115.73
128.36
133.32
131.62
124.10
111.77
96.15
79.28
63.34
50.13
40.62
34.85
32.20
31.77
32.76
34.64
37.16
40.16
43.42
46.47
48.63
49.11
47.22
42.63
35.52
26.62
17.01
7.83
-0.15
-6.80
-12.65
-18.68
-25.91
-34.85
-45.26
-56.19
-66.29
-74.41
-80.09
-83.72
-86.47
-89.93
-95.76
-105.25
-118.81
-135.39
-152.13
-164.49
-167.22
-155.99
-129.04
-88.12
-38.21
14.00
62.05
101.36
129.90
147.81
156.45
157.55
152.70
143.33
130.87
116.77
102.50
89.29
78.12
69.52
63.72
60.62
59.86
60.88
63.01
65.52
67.73
69.01
68.85
66.88
62.96
57.17
49.84
41.42
32.36
22.96
13.38
3.78
-5.67
-14.69
-23.09
-30.90
-38.41
-46.11
-54.42
-63.34
-72.50
-81.21
-88.83
-95.03
-100.00
-104.35
-109.06
-115.30
-124.33
-136.97
-152.90
-170.02
-184.20
-190.02
-182.29
-158.02
-117.82
-66.07
-9.64
44.17
89.60
123.59
145.68
157.06
159.56
154.91
144.63
130.35
113.88
97.28
82.44
70.73
62.73
58.23
56.54
56.84
58.48
61.06
64.29
67.79
70.90
72.71
72.33
69.16
63.27
55.32
46.40
37.53
29.29
21.60
13.88
5.47
-3.94
-14.06
-24.05
-33.00
-40.29
-46.01
-50.87
-55.92
-61.99
-69.31
-77.41
-85.36
-92.20
-97.40
-101.16
-104.39
-108.59
-115.39
-126.02
-140.50
-157.02
-171.73
-179.34
-174.63
-154.22
-118.07
-69.81
-15.71
37.22
83.20
118.77
142.96
156.44
160.66
157.14
147.43
133.26
116.63
99.75
84.58
72.51
64.10
59.18
57.14
57.23
58.83
61.46
64.68
67.97
70.65
71.98
71.36
68.56
63.81
57.68
50.83
43.75
36.57
29.15
21.22
12.63
3.54
-5.61
-14.23
-21.91
-28.56
-34.47
-40.27
-46.49
-53.42
-60.82
-68.03
-74.28
-78.99
-82.19
-84.58
-87.46
-92.43
-100.90
-113.40
-128.97
-144.72
-156.17
-158.24
-146.96
-121.00
-82.44
-36.33
10.91
53.40
87.27
111.02
125.07
130.72
129.36
122.17
110.33
95.30
78.96
63.32
50.16
40.65
35.17
33.37
34.41
37.30
41.09
45.08
48.83
52.07
54.62
56.20
56.45
54.95
51.37
45.64
38.07
29.33
20.26
11.67
4.07
-2.47
-8.23
-13.77
-19.66
-26.25
-33.49
-40.97
-48.09
-54.27
-59.25
-63.14
-66.44
-69.95
-74.63
-81.39
-90.87
-102.85
-115.79
-126.66
-131.44
-126.29
-109.02
-80.20
-43.20
-3.22
34.34
65.39
87.90
101.69
107.67
107.05
100.99
90.63
77.37
62.91
49.09
37.39
28.67
23.05
20.08
19.10
19.59
21.24
23.83
27.00
30.15
32.41
32.92
31.14
27.08
21.31
14.70
8.08
1.91
-3.90
-9.80
-16.34
-23.86
-32.26
-41.01
-49.35
-56.62
-62.50
-67.23
-71.53
-76.53
-83.39
-92.84
-104.57
-116.78
-126.19
-128.74
-120.88
-100.94
-70.00
-31.85
8.18
44.78
74.12
94.51
106.08
110.00
107.71
100.44
89.32
75.63
60.87
46.68
34.48
25.22
19.26
16.42
16.20
17.93
20.95
24.55
28.00
30.57
31.62
30.71
27.72
22.89
16.73
9.85
2.64
-4.78
-12.63
-21.19
-30.57
-40.50
-50.37
-59.47
-67.26
-73.63
-78.98
-84.16
-90.31
-98.59
-109.62
-122.91
-136.30
-146.01
-147.48
-136.89
-112.72
-76.73
-33.58
10.62
50.26
81.62
103.43
116.21
121.30
120.00
113.33
102.31
88.25
72.89
58.14
45.63
36.37
30.66
28.16
28.21
30.00
32.71
35.56
37.82
38.84
38.15
35.51
31.01
24.98
17.88
10.12
1.93
-6.65
-15.65
-25.05
-34.63
-44.01
-52.71
-60.43
-67.16
-73.24
-79.35
-86.42
-95.34
-106.65
-119.92
-133.24
-143.15
-145.32
-135.95
-113.28
-78.62
-36.18
8.14
48.68
81.42
104.68
118.66
124.53
123.59
116.98
105.80
91.56
76.14
61.61
49.68
41.32
36.69
35.25
36.15
38.52
41.60
44.77
47.45
49.03
48.94
46.78
42.50
36.38
29.00
20.97
12.68
4.18
-4.80
-14.60
-25.30
-36.55
-47.59
-57.52
-65.74
-72.20
-77.51
-82.83
-89.59
-99.10
-111.99
-127.50
-143.07
-154.53
-157.03
-146.73
-122.31
-85.85
-42.33
1.89
41.06
71.37
91.44
101.67
103.35
97.91
86.76
71.39
53.66
35.73
19.68
7.15
-0.93
-4.43
-3.81
0.13
6.48
14.33
22.82
31.17
38.67
44.73
48.99
51.32
51.81
50.66
48.02
43.90
38.20
30.78
21.66
11.22
0.13
-10.72
-20.53
-28.87
-35.90
-42.37
-49.51
-58.63
-70.67
-85.45
-101.10
-114.06
-119.77
-114.11
-94.90
-63.04
-22.45
21.06
61.61
94.73
118.16
131.55
135.76
132.04
121.75
106.53
88.51
70.23
54.29
42.63
36.10
34.31
35.89
39.20
42.85
46.09
48.70
50.77
52.21
52.55
51.00
46.80
39.62
29.86
18.63
7.34
-2.88
-11.56
-19.12
-26.55
-34.87
-44.56
-55.25
-65.86
-75.07
-81.94
-86.36
-89.18
-91.94
-96.43
-104.26
-116.23
-131.77
-148.48
-162.24
-167.90
-160.82
-138.50
-101.81
-54.96
-4.39
43.27
82.91
111.90
129.88
137.91
137.51
130.16
117.39
101.09
83.66
67.76
55.77
49.07
47.81
50.84
56.24
61.99
66.55
69.10
69.58
68.34
65.82
62.24
57.58
51.64
44.20
35.28
25.16
14.42
3.79
-6.01
-14.46
-21.41
-27.20
-32.51
-38.13
-44.68
-52.32
-60.60
-68.74
-75.86
-81.44
-85.50
-88.72
-92.24
-97.52
-105.93
-118.28
-134.15
-151.31
-165.64
-171.83
-164.94
-142.15
-104.01
-54.64
-0.51
51.43
95.61
128.86
150.42
161.16
162.67
156.69
145.03
129.69
113.00
97.41
85.04
77.32
74.54
75.91
79.90
84.73
88.92
91.68
92.85
92.72
91.54
89.22
85.31
79.27
70.86
60.44
49.04
37.97
28.33
20.62
14.52
9.18
3.60
-2.82
-10.06
-17.45
-23.98
-28.83
-31.73
-33.23
-34.54
-37.01
-41.64
-48.55
-57.01
-65.73
-73.43
-79.35
-83.56
-86.92
-90.81
-96.78
-106.10
-119.18
-134.92
-150.42
-161.17
-162.11
-149.25
-121.22
-80.13
-31.12
19.10
64.15
99.60
123.49
136.05
138.70
133.35
121.89
106.30
88.76
71.61
57.11
46.90
41.67
40.98
43.61
47.99
52.74
57.02
60.52
63.22
65.11
65.93
65.12
62.09
56.47
48.43
38.76
28.67
19.44
11.89
6.16
1.63
-2.69
-7.72
-13.78
-20.46
-26.81
-31.80
-34.89
-36.29
-36.96
-38.14
-40.82
-45.33
-51.22
-57.50
-63.08
-67.33
-70.26
-72.60
-75.54
-80.44
-88.40
-99.73
-113.50
-127.11
-136.68
-137.77
-126.94
-103.00
-67.77
-25.68
17.42
56.05
86.36
106.66
117.09
118.87
113.56
102.77
88.17
71.68
55.39
41.37
31.19
25.64
24.51
26.78
30.97
35.66
39.86
43.18
45.70
47.58
48.83
49.05
47.65
44.07
38.19
30.53
22.07
14.05
7.43
2.57
-0.90
-3.81
-7.15
-11.53
-16.95
-22.74
-27.87
-31.50
-33.39
-34.11
-34.80
-36.67
-40.50
-46.25
-53.17
-60.11
-66.06
-70.56
-73.86
-76.84
-80.77
-86.92
-96.22
-108.75
-123.27
-136.97
-145.85
-145.55
-132.78
-106.65
-69.27
-25.39
18.98
58.24
88.66
108.79
119.11
121.13
116.58
107.03
94.02
79.21
64.43
51.50
41.77
35.85
33.52
33.94
36.04
38.84
41.74
44.44
46.86
48.99
50.70
51.68
51.43
49.47
45.46
39.50
32.18
24.44
17.29
11.37
6.74
2.84
-1.22
-6.19
-12.29
-19.05
-25.50
-30.65
-33.90
-35.41
-35.98
-36.75
-38.79
-42.69
-48.38
-55.20
-62.21
-68.49
-73.58
-77.53
-80.97
-84.99
-90.82
-99.57
-111.59
-126.02
-140.36
-150.67
-152.46
-142.05
-117.98
-81.82
-37.94
7.71
49.35
82.86
106.40
120.14
125.45
124.02
117.37
106.86
93.91
80.13
67.18
56.50
48.94
44.61
42.97
43.23
44.68
46.93
49.85
53.34
57.06
60.31
62.06
61.38
57.70
51.14
42.53
33.11
24.14
16.45
10.20
4.88
-0.33
-6.15
-12.83
-19.98
-26.81
-32.47
-36.53
-39.21
-41.33
-43.93
-47.80
-53.09
-59.34
-65.66
-71.16
-75.39
-78.59
-81.59
-85.65
-92.12
-101.90
-114.92
-129.69
-143.09
-150.87
-148.71
-133.67
-105.46
-66.79
-22.70
20.89
58.87
88.07
107.45
117.61
119.89
115.71
106.41
93.36
78.15
62.68
48.79
37.89
30.60
26.75
25.54
25.99
27.31
29.07
31.18
33.72
36.60
39.41
41.42
41.69
39.42
34.27
26.58
17.31
7.75
-0.97
-8.28
-14.36
-19.98
-26.08
-33.27
-41.56
-50.31
-58.55
-65.31
-70.08
-72.95
-74.61
-76.24
-79.25
-84.97
-94.20
-106.64
-120.44
-132.16
-137.45
-132.26
-114.33
-84.18
-45.15
-2.47
38.37
73.02
99.12
116.13
124.67
125.77
120.43
109.76
95.25
78.86
62.87
49.39
39.81
34.51
32.90
33.80
35.93
38.35
40.58
42.53
44.22
45.48
45.90
44.75
41.32
35.21
26.61
16.35
5.70
-4.07
-12.19
-18.71
-24.44
-30.59
-38.18
-47.53
-58.13
-68.79
-78.20
-85.39
-90.25
-93.52
-96.63
-101.29
-109.12
-121.01
-136.59
-153.72
-168.57
-176.23
-172.14
-153.59
-120.90
-77.58
-29.30
17.67
58.19
89.23
109.87
120.72
123.05
118.22
107.58
92.66
75.26
57.52
41.56
29.06
20.97
17.30
17.38
20.21
24.84
30.72
37.60
45.34
53.61
61.74
68.79
73.78
75.95
75.03
71.27
65.36
58.21
50.70
43.44
36.53
29.59
21.91
12.77
1.93
-10.22
-22.60
-33.88
-42.99
-49.65
-54.54
-59.09
-65.08
-74.11
-87.11
-103.84
-122.50
-139.67
-150.77
-151.06
-137.14
-108.26
-66.87
-18.08
31.75
76.78
112.97
138.56
153.63
159.36
157.32
149.17
136.64
121.59
106.05
91.91
80.71
73.36
70.01
70.05
72.38
75.64
78.59
80.39
80.64
79.32
76.58
72.53
67.14
60.27
51.93
42.30
31.88
21.33
11.31
2.31
-5.48
-12.22
-18.38
-24.51
-31.11
-38.43
-46.26
-54.02
-60.96
-66.44
-70.23
-72.74
-74.88
-77.92
-83.26
-92.11
-105.12
-121.83
-140.19
-156.36
-165.29
-162.07
-143.64
-110.15
-65.26
-15.15
33.32
74.55
105.32
124.86
134.05
134.45
127.68
115.34
99.27
81.69
65.07
51.63
42.81
38.93
39.25
42.31
46.57
50.79
54.33
57.09
59.22
60.75
61.37
60.40
57.04
50.77
41.67
30.55
18.76
7.75
-1.48
-8.68
-14.43
-19.81
-25.92
-33.42
-42.25
-51.59
-60.31
-67.39
-72.33
-75.43
-77.65
-80.38
-85.14
-93.14
-104.84
-119.51
-134.78
-146.75
-150.72
-142.56
-120.26
-85.01
-41.06
5.46
48.36
83.09
107.50
121.53
126.40
123.67
114.87
101.53
85.47
68.83
53.81
42.17
34.86
31.90
32.52
35.56
39.87
44.48
48.68
52.00
54.06
54.57
53.34
50.33
45.68
39.68
32.66
24.88
16.55
7.83
-1.08
-9.85
-18.06
-25.37
-31.63
-37.00
-41.91
-46.90
-52.37
-58.42
-64.77
-70.91
-76.25
-80.46
-83.56
-86.08
-89.00
-93.63
-101.24
-112.60
-127.23
-142.92
-155.70
-160.58
-153.14
-131.02
-95.20
-49.84
-1.20
44.35
81.98
109.30
126.19
133.85
133.90
127.79
116.82
102.48
86.66
71.58
59.28
51.13
47.47
47.59
50.13
53.66
57.12
60.10
62.65
64.93
66.88
68.01
67.51
64.66
59.19
51.51
42.63
33.80
26.04
19.71
14.48
9.51
3.95
-2.68
-10.17
-17.75
-24.38
-29.29
-32.34
-34.11
-35.74
-38.49
-43.20
-49.97
-58.17
-66.67
-74.36
-80.54
-85.23
-89.13
-93.41
-99.48
-108.56
-121.10
-136.20
-151.22
-161.87
-163.23
-151.28
-124.51
-84.80
-37.13
11.89
56.00
90.87
114.81
128.24
132.74
130.03
121.59
108.74
93.03
76.47
61.27
49.37
41.91
38.89
39.34
41.84
45.09
48.37
51.48
54.49
57.31
59.47
60.17
58.61
54.39
47.76
39.62
31.18
23.53
17.21
12.02
7.20
1.78
-4.87
-12.68
-20.84
-28.14
-33.58
-36.81
-38.39
-39.50
-41.39
-44.82
-49.78
-55.54
-61.10
-65.69
-69.08
-71.65
-74.33
-78.35
-84.94
-94.92
-108.17
-123.04
-136.22
-143.21
-139.61
-122.70
-92.64
-52.72
-8.44
34.18
70.31
97.22
114.35
122.52
123.07
117.35
106.64
92.41
76.50
60.97
47.70
37.99
32.34
30.42
31.43
34.42
38.48
42.89
47.06
50.47
52.66
53.27
52.11
49.16
44.58
38.63
31.61
23.84
15.64
7.31
-0.89
-8.70
-15.91
-22.40
-28.11
-33.22
-38.05
-42.97
-48.28
-53.96
-59.71
-65.01
-69.39
-72.69
-75.20
-77.68
-81.19
-86.95
-95.87
-108.03
-122.11
-135.09
-142.69
-140.43
-125.29
-96.97
-58.30
-14.49
28.48
65.67
94.19
113.30
123.72
126.61
123.09
114.15
101.00
85.37
69.46
55.48
45.09
39.04
37.01
38.01
40.79
44.34
48.05
51.62
54.83
57.30
58.47
57.74
54.74
49.56
42.77
35.23
27.72
20.62
13.77
6.64
-1.27
-10.06
-19.21
-27.83
-35.02
-40.40
-44.33
-47.78
-51.81
-57.11
-63.60
-70.55
-77.00
-82.25
-86.24
-89.57
-93.32
-98.77
-107.08
-118.88
-133.76
-149.73
-163.14
-169.18
-163.31
-142.83
-108.20
-63.17
-13.79
33.54
73.75
104.17
124.38
135.35
138.50
135.15
126.56
114.15
99.77
85.46
73.12
64.01
58.57
56.40
56.71
58.58
61.35
64.58
68.02
71.34
73.98
75.26
74.44
71.07
65.16
57.22
48.23
39.28
31.22
24.35
18.30
12.30
5.53
-2.39
-11.13
-19.76
-27.18
-32.63
-36.17
-38.68
-41.47
-45.72
-51.86
-59.46
-67.50
-74.85
-80.82
-85.46
-89.51
-94.20
-100.97
-111.02
-124.86
-141.62
-158.61
-171.44
-174.94
-164.82
-139.26
-99.94
-51.68
-1.06
45.61
83.83
111.56
128.83
136.82
137.04
130.94
119.97
105.83
90.50
76.00
64.04
55.63
51.00
49.72
51.01
54.05
58.11
62.64
67.07
70.77
73.05
73.28
71.10
66.54
60.11
52.58
44.70
36.96
29.46
21.93
14.00
5.53
-3.26
-11.80
-19.44
-25.78
-30.95
-35.52
-40.27
-45.75
-52.06
-58.78
-65.20
-70.72
-75.14
-78.79
-82.46
-87.32
-94.59
-105.16
-118.95
-134.36
-148.02
-155.25
-151.43
-133.64
-102.03
-60.09
-13.64
30.96
68.71
96.94
115.23
124.49
126.03
120.98
110.40
95.68
78.83
62.31
48.48
38.91
34.02
33.08
34.72
37.53
40.58
43.50
46.37
49.27
51.95
53.71
53.55
50.56
44.36
35.35
24.72
13.98
4.48
-3.19
-9.37
-15.15
-21.82
-30.20
-40.19
-50.77
-60.48
-67.97
-72.70
-75.10
-76.37
-78.14
-81.97
-89.09
-99.93
-113.78
-128.44
-140.22
-144.63
-137.71
-117.48
-84.96
-44.09
-0.55
39.99
73.45
97.94
113.38
120.63
120.67
114.37
102.76
87.43
70.70
55.23
43.37
36.46
34.49
36.23
39.86
43.64
46.47
48.08
48.81
49.10
49.02
48.10
45.42
40.09
31.69
20.62
8.08
-4.36
-15.37
-24.34
-31.65
-38.42
-45.94
-55.02
-65.65
-76.99
-87.78
-96.93
-103.97
-109.22
-113.65
-118.55
-125.26
-134.89
-147.93
-163.75
-180.10
-192.97
-197.30
-188.39
-163.61
-123.63
-72.48
-16.41
37.92
85.29
122.72
149.41
165.90
173.21
172.49
164.99
152.45
137.16
121.71
108.56
99.39
94.78
94.10
95.89
98.48
100.46
101.09
100.29
98.37
95.66
92.18
87.60
81.42
73.25
63.05
51.30
38.79
26.45
15.05
5.04
-3.57
-11.12
-18.18
-25.38
-33.10
-41.38
-49.83
-57.86
-64.89
-70.62
-75.26
-79.43
-84.08
-90.34
-99.31
-111.77
-127.67
-145.49
-161.86
-171.97
-170.74
-154.62
-123.06
-79.16
-28.77
21.29
65.21
99.52
123.20
136.93
142.05
139.95
131.99
119.79
105.47
91.44
79.94
72.37
69.12
69.51
72.29
76.18
80.16
83.67
86.45
88.30
88.92
87.83
84.51
78.66
70.43
60.49
49.91
39.82
30.99
23.57
17.09
10.77
3.90
-3.70
-11.58
-18.86
-24.66
-28.64
-31.23
-33.55
-36.97
-42.50
-50.32
-59.70
-69.34
-77.95
-84.84
-90.15
-94.81
-100.20
-107.77
-118.64
-133.10
-150.03
-166.56
-178.28
-180.09
-167.92
-140.23
-99.02
-49.42
1.74
48.05
85.09
111.05
126.31
132.38
130.97
123.63
111.94
97.75
83.33
71.01
62.64
59.05
59.84
63.60
68.57
73.22
76.72
78.91
80.10
80.57
80.28
78.76
75.42
69.79
61.92
52.37
42.16
32.38
23.89
17.09
11.78
7.41
3.24
-1.31
-6.45
-11.98
-17.38
-22.00
-25.44
-27.75
-29.51
-31.68
-35.26
-40.81
-48.29
-56.94
-65.59
-73.15
-79.01
-83.34
-87.00
-91.29
-97.63
-107.03
-119.60
-134.10
-147.68
-156.22
-155.30
-141.66
-114.54
-76.26
-31.72
13.03
52.56
83.33
104.10
115.38
118.54
115.03
106.26
93.71
79.25
65.13
53.57
46.21
43.68
45.44
50.10
55.95
61.51
65.86
68.70
70.08
70.13
68.86
66.07
61.47
54.97
46.79
37.57
28.26
19.80
12.89
7.69
3.77
0.35
-3.38
-7.87
-13.06
-18.34
-22.93
-26.22
-28.08
-29.07
-30.19
-32.54
-36.86
-43.24
-51.09
-59.37
-67.05
-73.45
-78.45
-82.52
-86.61
-91.93
-99.68
-110.58
-124.24
-138.69
-150.31
-154.57
-147.34
-126.50
-92.94
-50.55
-5.11
37.42
72.53
97.90
113.27
119.70
118.70
111.78
100.43
86.39
71.69
58.53
48.79
43.52
42.74
45.44
50.11
55.19
59.59
62.80
64.81
65.79
65.83
64.79
62.39
58.39
52.78
45.89
38.30
30.59
23.23
16.46
10.35
4.88
-0.00
-4.33
-8.21
-11.82
-15.36
-19.02
-22.89
-26.86
-30.75
-34.32
-37.50
-40.50
-43.80
-48.03
-53.74
-61.00
-69.38
-77.98
-85.76
-92.05
-96.81
-100.75
-105.10
-111.36
-120.71
-133.46
-148.46
-162.85
-172.37
-172.34
-159.16
-131.75
-92.20
-45.34
2.65
46.03
80.89
105.64
120.63
127.20
126.96
121.35
111.73
99.62
86.84
75.29
66.52
61.36
59.72
60.81
63.54
66.97
70.56
74.07
77.32
79.97
81.46
81.11
78.44
73.39
66.39
58.28
49.99
42.24
35.33
29.10
23.12
16.97
10.52
4.09
-1.73
-6.36
-9.55
-11.58
-13.17
-15.19
-18.26
-22.51
-27.54
-32.64
-37.17
-40.92
-44.26
-47.98
-52.95
-59.68
-68.00
-77.17
-86.08
-93.84
-100.01
-104.90
-109.38
-114.78
-122.50
-133.59
-148.13
-164.54
-179.46
-188.10
-185.55
-168.41
-136.20
-91.78
-40.69
10.54
56.19
92.55
118.27
133.79
140.51
140.04
133.90
123.64
110.91
97.56
85.41
75.91
69.84
67.19
67.34
69.38
72.47
76.00
79.62
83.01
85.72
87.15
86.66
83.83
78.67
71.64
63.57
55.32
47.50
40.32
33.58
26.92
20.08
13.10
6.36
0.34
-4.57
-8.37
-11.42
-14.32
-17.64
-21.59
-26.01
-30.38
-34.27
-37.53
-40.55
-44.05
-48.83
-55.32
-63.31
-72.08
-80.61
-88.04
-94.05
-98.89
-103.41
-108.79
-116.37
-127.18
-141.39
-157.64
-172.71
-181.86
-180.08
-163.78
-132.33
-88.53
-37.97
12.73
57.79
93.54
118.70
133.75
139.98
138.83
131.62
119.77
104.99
89.31
74.82
63.25
55.59
51.91
51.55
53.48
56.69
60.50
64.58
68.75
72.73
75.99
77.73
77.13
73.66
67.36
58.88
49.25
39.63
30.90
23.36
16.79
10.55
4.01
-3.24
-11.13
-19.13
-26.42
-32.21
-36.11
-38.35
-39.77
-41.62
-44.99
-50.45
-57.74
-65.90
-73.70
-80.17
-84.98
-88.60
-92.15
-97.02
-104.59
-115.77
-130.47
-147.06
-162.16
-171.08
-169.00
-152.58
-121.42
-78.49
-29.36
19.44
62.35
96.01
119.39
133.14
138.57
136.92
129.33
117.05
101.80
85.75
71.13
59.65
52.13
48.38
47.57
48.73
51.12
54.41
58.41
62.83
67.04
70.05
70.89
68.88
63.97
56.73
48.20
39.46
31.28
23.89
16.96
9.84
1.93
-6.95
-16.43
-25.61
-33.57
-39.69
-44.09
-47.59
-51.32
-56.26
-62.74
-70.34
-78.11
-85.05
-90.57
-94.77
-98.45
-102.97
-109.94
-120.70
-135.70
-153.69
-171.35
-183.67
-185.15
-171.63
-141.93
-98.55
-47.03
5.82
53.85
93.03
121.77
140.29
149.74
151.37
146.39
136.10
122.18
106.61
91.52
78.72
69.36
63.79
61.62
62.04
64.14
67.21
70.75
74.47
78.02
80.85
82.18
81.20
77.38
70.73
61.95
52.16
42.62
34.17
26.96
20.46
13.71
5.86
-3.39
-13.56
-23.60
-32.23
-38.60
-42.65
-45.20
-47.64
-51.33
-57.10
-64.88
-73.85
-82.77
-90.56
-96.69
-101.44
-105.78
-111.16
-119.17
-131.02
-146.82
-165.00
-182.02
-192.78
-191.89
-175.43
-142.51
-95.91
-41.42
13.84
63.46
103.19
131.39
148.52
156.08
155.76
149.11
137.62
123.03
107.39
92.87
81.31
73.73
70.15
69.80
71.49
74.16
77.11
80.11
83.08
85.87
87.99
88.63
86.92
82.27
74.68
64.89
54.17
43.94
35.19
28.15
22.27
16.46
9.69
1.44
-8.01
-17.67
-26.26
-32.80
-37.06
-39.70
-42.01
-45.39
-50.73
-58.10
-66.71
-75.38
-82.97
-88.97
-93.63
-97.84
-102.96
-110.42
-121.40
-136.21
-153.63
-170.51
-181.95
-182.54
-168.12
-137.54
-93.37
-41.38
11.39
58.61
96.23
122.81
138.81
145.59
144.61
137.24
125.01
109.81
93.88
79.42
68.08
60.65
56.95
56.19
57.40
59.83
63.04
66.82
70.86
74.54
76.96
77.09
74.24
68.35
60.08
50.61
41.19
32.66
25.16
18.18
10.93
2.83
-6.14
-15.27
-23.52
-30.00
-34.47
-37.51
-40.29
-43.98
-49.19
-55.69
-62.58
-68.76
-73.47
-76.69
-79.12
-82.01
-86.86
-94.93
-106.82
-121.88
-137.73
-150.30
-154.68
-146.56
-123.94
-88.11
-43.59
3.31
46.36
81.17
105.88
120.80
127.32
126.97
120.91
110.15
95.94
80.03
64.58
51.64
42.63
38.05
37.42
39.63
43.32
47.38
51.06
53.99
56.03
57.05
56.82
55.03
51.37
45.71
38.19
29.25
19.57
9.94
1.05
-6.66
-13.15
-18.81
-24.29
-30.28
-37.19
-44.97
-53.05
-60.55
-66.70
-71.11
-74.00
-76.10
-78.44
-82.12
-88.14
-97.24
-109.47
-123.72
-137.33
-146.28
-146.06
-133.22
-106.85
-69.26
-25.47
18.36
56.81
86.49
106.39
117.22
120.44
117.49
109.60
97.98
84.12
69.87
57.13
47.44
41.63
39.64
40.72
43.73
47.58
51.47
54.97
57.85
59.83
60.47
59.25
55.81
50.24
43.09
35.21
27.33
19.80
12.47
4.96
-2.97
-11.17
-19.08
-26.00
-31.49
-35.66
-39.18
-42.94
-47.65
-53.53
-60.19
-66.88
-72.85
-77.72
-81.66
-85.35
-89.86
-96.40
-106.00
-118.97
-134.24
-149.02
-158.95
-159.21
-146.13
-118.78
-79.62
-33.91
11.95
52.43
84.18
106.26
119.41
124.97
124.11
117.81
107.21
93.98
80.26
68.28
59.69
55.20
54.42
56.27
59.45
62.93
66.12
68.83
71.07
72.76
73.60
73.09
70.69
66.04
59.21
50.69
41.38
32.29
24.23
17.56
12.14
7.40
2.64
-2.65
-8.61
-14.91
-20.89
-25.86
-29.39
-31.61
-33.19
-35.22
-38.73
-44.29
-51.75
-60.24
-68.55
-75.63
-81.01
-85.03
-88.66
-93.25
-100.15
-110.34
-123.94
-139.74
-154.86
-165.06
-165.63
-152.93
-125.86
-86.60
-40.18
6.99
49.06
82.24
105.21
118.64
124.12
123.28
117.48
107.90
95.96
83.40
72.05
63.42
58.30
56.52
57.26
59.42
62.10
64.78
67.25
69.41
71.05
71.78
71.10
68.61
64.23
58.14
50.86
43.01
35.19
27.83
21.19
15.35
10.24
5.75
1.73
-2.00
-5.65
-9.41
-13.41
-17.55
-21.58
-25.15
-28.01
-30.25
-32.40
-35.24
-39.51
-45.53
-52.98
-61.03
-68.64
-75.06
-80.04
-84.00
-87.78
-92.51
-99.34
-109.12
-121.96
-136.59
-150.03
-157.95
-155.75
-140.23
-111.02
-71.09
-25.95
18.14
56.00
84.72
103.66
113.73
116.38
112.92
104.54
92.58
78.75
65.05
53.48
45.46
41.59
41.53
44.24
48.39
52.83
56.79
60.03
62.61
64.61
65.87
65.90
64.05
59.84
53.27
44.94
35.90
27.28
19.94
14.16
9.62
5.61
1.36
-3.61
-9.29
-15.23
-20.70
-25.04
-27.91
-29.51
-30.48
-31.77
-34.28
-38.56
-44.61
-51.86
-59.38
-66.24
-71.87
-76.24
-79.92
-83.89
-89.33
-97.32
-108.40
-122.01
-136.05
-146.94
-150.26
-142.14
-120.72
-87.13
-45.35
-1.08
40.04
73.95
98.71
114.30
121.72
122.19
116.86
106.88
93.68
79.15
65.37
54.18
46.81
43.54
43.80
46.52
50.54
54.90
59.01
62.56
65.37
67.16
67.57
66.21
62.85
57.58
50.78
43.10
35.26
27.79
21.01
14.93
9.37
4.11
-1.07
-6.32
-11.69
-17.11
-22.40
-27.25
-31.35
-34.51
-36.84
-38.82
-41.27
-45.06
-50.73
-58.26
-66.97
-75.74
-83.52
-89.68
-94.37
-98.36
-102.93
-109.52
-119.33
-132.78
-148.90
-164.95
-176.53
-178.57
-166.92
-139.97
-99.60
-50.78
-0.16
45.98
83.37
110.25
127.00
135.03
135.92
130.99
121.50
108.93
95.11
81.99
71.23
63.86
60.09
59.46
61.18
64.38
68.38
72.63
76.73
80.24
82.67
83.52
82.34
78.91
73.31
65.94
57.45
48.53
39.78
31.65
24.36
17.88
12.05
6.51
0.92
-5.00
-11.33
-17.85
-24.09
-29.48
-33.66
-36.64
-38.99
-41.62
-45.50
-51.25
-58.82
-67.51
-76.23
-83.99
-90.26
-95.21
-99.62
-104.65
-111.60
-121.58
-135.08
-151.38
-168.05
-180.89
-184.80
-175.26
-150.13
-110.66
-61.49
-9.17
39.73
80.38
110.47
129.90
139.85
141.82
137.21
127.37
113.84
98.55
83.64
71.04
62.08
57.25
56.13
57.76
61.01
64.92
68.87
72.57
75.88
78.55
80.13
79.99
77.55
72.51
65.10
56.09
46.61
37.73
30.12
23.79
18.20
12.51
6.05
-1.38
-9.42
-17.23
-23.88
-28.70
-31.63
-33.22
-34.54
-36.77
-40.79
-46.85
-54.49
-62.72
-70.44
-76.84
-81.71
-85.51
-89.25
-94.25
-101.85
-112.95
-127.41
-143.45
-157.51
-164.78
-160.54
-141.83
-108.74
-64.74
-15.67
31.99
73.00
104.37
125.38
136.84
140.08
136.43
127.15
113.68
97.92
82.00
68.00
57.35
50.63
47.49
47.10
48.51
51.05
54.39
58.35
62.66
66.73
69.63
70.34
68.13
62.87
55.17
46.20
37.25
29.27
22.49
16.47
10.29
3.11
-5.42
-14.86
-24.15
-32.05
-37.72
-41.14
-43.19
-45.26
-48.67
-54.02
-61.06
-68.86
-76.24
-82.41
-87.20
-91.16
-95.26
-100.71
-108.72
-120.14
-134.90
-151.39
-166.15
-174.36
-171.04
-152.89
-119.72
-74.85
-24.15
25.74
69.34
103.45
127.16
141.12
146.60
144.84
137.07
124.70
109.53
93.69
79.27
67.85
60.23
56.30
55.34
56.38
58.61
61.51
64.86
68.48
71.95
74.52
75.24
73.29
68.35
60.84
51.75
42.38
33.84
26.55
20.25
14.10
7.14
-1.19
-10.71
-20.56
-29.52
-36.55
-41.34
-44.44
-47.01
-50.38
-55.38
-62.08
-69.78
-77.39
-83.96
-89.06
-92.99
-96.72
-101.65
-109.29
-120.78
-136.17
-153.83
-170.12
-180.00
-178.26
-161.37
-128.91
-84.01
-32.47
18.97
64.58
100.80
126.45
142.04
148.76
147.91
140.74
128.68
113.58
97.62
82.91
71.03
62.73
57.93
55.95
56.00
57.43
59.88
63.14
66.94
70.68
73.53
74.50
72.82
68.26
61.19
52.59
43.63
35.32
28.08
21.65
15.25
8.02
-0.45
-9.92
-19.44
-27.87
-34.38
-38.92
-42.29
-45.75
-50.46
-56.84
-64.45
-72.19
-78.87
-83.79
-87.08
-89.68
-93.04
-98.75
-108.11
-121.52
-137.93
-154.43
-166.53
-169.12
-158.11
-132.05
-92.94
-45.83
2.80
46.93
82.59
108.25
124.29
131.94
132.48
126.95
116.40
102.27
86.49
71.21
58.33
49.10
43.87
42.23
43.32
46.13
49.77
53.50
56.77
59.18
60.44
60.34
58.71
55.43
50.39
43.63
35.39
26.14
16.56
7.32
-1.06
-8.43
-15.00
-21.27
-27.82
-35.02
-42.88
-50.99
-58.66
-65.22
-70.27
-73.92
-76.72
-79.55
-83.44
-89.41
-98.28
-110.33
-124.68
-138.92
-149.11
-150.63
-139.67
-114.80
-77.83
-33.47
12.14
53.35
86.41
109.94
124.35
130.81
130.49
124.29
113.24
98.79
82.96
67.96
55.69
47.28
42.90
41.92
43.32
46.04
49.24
52.34
54.99
56.94
57.95
57.77
56.13
52.81
47.73
40.94
32.70
23.44
13.75
4.27
-4.47
-12.20
-18.98
-25.19
-31.38
-38.06
-45.50
-53.63
-62.02
-70.01
-77.00
-82.66
-87.04
-90.66
-94.49
-99.85
-108.06
-119.92
-134.97
-150.89
-163.57
-167.98
-159.73
-136.74
-100.23
-54.59
-5.96
39.56
77.57
105.99
124.73
134.76
137.33
133.57
124.60
111.85
97.17
82.68
70.25
61.18
55.89
54.03
54.75
57.14
60.42
64.05
67.58
70.56
72.38
72.42
70.22
65.69
59.25
51.67
43.77
36.15
28.89
21.66
13.99
5.59
-3.38
-12.33
-20.52
-27.42
-33.03
-37.87
-42.76
-48.38
-55.01
-62.32
-69.60
-76.10
-81.40
-85.62
-89.52
-94.31
-101.38
-111.88
-126.07
-142.67
-158.59
-169.17
-169.45
-155.73
-127.13
-86.22
-38.35
9.98
53.05
87.25
111.38
125.96
132.25
131.47
124.73
113.30
98.88
83.63
69.76
59.02
52.25
49.35
49.51
51.65
54.84
58.43
62.07
65.45
68.20
69.79
69.62
67.27
62.67
56.21
48.57
40.54
32.66
25.14
17.79
10.27
2.33
-5.91
-13.97
-21.19
-27.02
-31.40
-34.82
-38.15
-42.26
-47.56
-53.85
-60.35
-66.16
-70.70
-74.01
-76.81
-80.28
-85.78
-94.46
-106.70
-121.58
-136.47
-147.18
-148.92
-137.86
-112.70
-75.49
-31.16
14.03
54.45
86.52
109.02
122.46
128.01
126.77
119.63
107.62
92.32
75.86
60.58
48.39
40.34
36.47
36.10
38.22
41.83
46.22
50.80
55.03
58.29
59.91
59.41
56.59
51.76
45.49
38.42
31.00
23.40
15.55
7.39
-0.97
-9.21
-16.85
-23.56
-29.33
-34.49
-39.67
-45.44
-52.03
-59.17
-66.16
-72.21
-76.78
-79.89
-82.14
-84.62
-88.67
-95.57
-106.14
-120.10
-135.52
-148.72
-154.91
-149.57
-130.13
-97.18
-54.57
-8.20
35.82
72.91
100.81
119.29
129.26
131.83
128.00
118.78
105.58
90.39
75.45
62.76
53.48
47.86
45.28
44.84
45.75
47.62
50.34
53.74
57.43
60.57
62.18
61.40
57.94
52.14
44.89
37.25
30.02
23.47
17.27
10.80
3.50
-4.79
-13.66
-22.24
-29.57
-35.09
-38.90
-41.80
-44.90
-49.18
-54.95
-61.77
-68.67
-74.62
-79.08
-82.24
-84.98
-88.59
-94.42
-103.57
-116.33
-131.71
-146.99
-157.93
-159.68
-148.30
-122.41
-84.00
-37.99
9.27
52.01
86.42
111.10
126.44
133.56
133.61
127.55
116.56
102.27
86.83
72.49
61.02
53.24
49.01
47.52
47.81
49.18
51.35
54.24
57.66
61.06
63.55
64.15
62.21
57.64
51.03
43.35
35.57
28.34
21.74
15.41
8.78
1.47
-6.51
-14.64
-22.18
-28.41
-33.10
-36.59
-39.72
-43.43
-48.32
-54.37
-60.92
-67.05
-71.98
-75.48
-77.95
-80.36
-84.07
-90.39
-100.24
-113.49
-128.40
-141.49
-148.11
-143.77
-125.88
-94.89
-54.38
-10.08
32.10
67.64
94.31
111.85
121.17
123.43
119.62
110.67
97.83
82.78
67.58
54.12
43.79
37.24
34.29
34.24
36.11
38.97
42.10
45.04
47.55
49.44
50.45
50.21
48.28
44.32
38.24
30.35
21.34
12.04
3.29
-4.45
-11.14
-17.14
-22.99
-29.23
-36.13
-43.63
-51.29
-58.52
-64.73
-69.54
-72.94
-75.31
-77.42
-80.31
-85.18
-93.08
-104.32
-117.93
-131.23
-140.13
-140.12
-127.85
-102.57
-66.62
-24.85
16.97
53.92
83.04
103.47
115.72
120.79
119.50
112.60
101.11
86.59
71.10
56.79
45.35
37.68
33.82
33.14
34.74
37.68
41.18
44.62
47.52
49.54
50.36
49.79
47.67
43.95
38.68
31.98
24.13
15.49
6.54
-2.21
-10.34
-17.57
-23.96
-29.88
-35.91
-42.58
-50.09
-58.19
-66.18
-73.26
-78.83
-82.83
-85.79
-88.65
-92.55
-98.68
-107.94
-120.65
-135.95
-151.33
-162.69
-165.19
-154.81
-129.96
-92.33
-46.60
1.06
44.83
80.74
107.10
124.04
132.55
133.82
128.98
119.27
106.29
92.04
78.56
67.51
59.80
55.54
54.17
54.88
56.93
59.82
63.22
66.79
69.96
71.99
72.08
69.74
65.00
58.38
50.75
42.95
35.48
28.34
21.20
13.61
5.39
-3.22
-11.62
-19.12
-25.30
-30.28
-34.70
-39.47
-45.33
-52.42
-60.27
-67.95
-74.56
-79.63
-83.41
-86.87
-91.36
-98.38
-109.03
-123.40
-140.01
-155.56
-165.34
-164.45
-149.47
-119.85
-78.43
-30.70
16.96
59.05
92.29
115.62
129.62
135.41
134.16
126.90
114.89
99.89
84.08
69.68
58.39
51.06
47.59
47.20
48.83
51.49
54.55
57.62
60.46
62.76
64.07
63.84
61.66
57.43
51.46
44.33
36.67
28.93
21.20
13.40
5.43
-2.58
-10.27
-17.19
-23.14
-28.29
-33.16
-38.35
-44.22
-50.62
-56.98
-62.60
-66.99
-70.19
-72.76
-75.74
-80.37
-87.82
-98.73
-112.67
-127.60
-139.86
-144.82
-138.32
-118.18
-85.27
-43.54
1.24
43.27
78.24
104.10
120.71
128.92
129.82
124.37
113.59
98.97
82.49
66.46
52.92
43.25
37.89
36.45
37.98
41.36
45.58
49.80
53.42
55.99
57.18
56.76
54.63
50.83
45.51
38.94
31.41
23.24
14.72
6.12
-2.27
-10.17
-17.38
-23.85
-29.78
-35.59
-41.75
-48.50
-55.71
-62.88
-69.32
-74.50
-78.32
-81.26
-84.19
-88.23
-94.50
-103.88
-116.56
-131.50
-146.04
-155.99
-156.61
-144.14
-117.35
-78.38
-32.19
14.90
57.21
91.04
115.01
129.52
135.73
134.84
127.96
116.31
101.58
85.81
71.10
59.16
50.93
46.51
45.34
46.53
49.17
52.49
55.95
59.14
61.70
63.21
63.21
61.32
57.40
51.59
44.30
36.08
27.46
18.77
10.20
1.84
-6.15
-13.58
-20.24
-26.13
-31.52
-36.88
-42.68
-49.09
-55.87
-62.45
-68.23
-72.82
-76.33
-79.32
-82.75
-87.81
-95.68
-107.10
-121.70
-137.40
-150.32
-155.54
-148.61
-127.34
-92.83
-49.36
-3.02
40.24
76.15
102.76
119.97
128.68
129.98
124.96
114.85
101.26
86.21
71.74
59.52
50.53
44.98
42.52
42.46
44.07
46.68
49.72
52.66
55.02
56.40
56.50
55.10
52.13
47.60
41.65
34.54
26.59
18.16
9.60
1.23
-6.69
-13.92
-20.39
-26.22
-31.74
-37.40
-43.53
-50.09
-56.67
-62.57
-67.21
-70.42
-72.59
-74.60
-77.59
-82.69
-90.77
-101.99
-115.33
-128.22
-136.78
-136.68
-124.63
-99.81
-64.47
-23.35
17.81
54.08
82.48
102.13
113.60
117.89
115.92
108.46
96.53
81.68
66.04
51.81
40.75
33.72
30.57
30.37
31.88
34.04
36.27
38.44
40.62
42.74
44.37
44.65
42.64
37.73
29.96
20.20
9.89
0.49
-7.06
-12.74
-17.46
-22.50
-28.93
-37.06
-46.24
-55.21
-62.70
-68.00
-71.18
-73.11
-75.02
-78.24
-83.94
-92.85
-104.88
-118.65
-131.15
-138.24
-135.69
-120.76
-93.41
-56.59
-15.36
24.76
59.36
86.06
104.32
114.69
118.03
115.07
106.61
93.89
78.78
63.57
50.45
40.94
35.53
33.77
34.53
36.59
39.02
41.38
43.59
45.76
47.78
49.22
49.30
47.17
42.26
34.57
24.86
14.44
4.74
-3.27
-9.47
-14.64
-20.05
-26.92
-35.74
-46.08
-56.74
-66.30
-73.67
-78.54
-81.45
-83.57
-86.37
-91.34
-99.71
-111.96
-127.28
-143.05
-155.02
-158.24
-148.63
-124.60
-87.87
-43.15
3.42
46.03
80.76
105.94
121.71
129.15
129.52
123.97
113.77
100.50
86.11
72.66
61.86
54.70
51.33
51.12
53.05
56.10
59.44
62.52
64.96
66.42
66.56
65.10
61.93
57.18
51.14
44.14
36.44
28.18
19.48
10.55
1.75
-6.49
-13.84
-20.26
-26.04
-31.70
-37.78
-44.58
-51.96
-59.45
-66.42
-72.42
-77.34
-81.54
-85.73
-90.91
-98.18
-108.50
-122.14
-138.00
-153.20
-163.32
-163.46
-149.98
-121.96
-81.88
-34.98
12.45
54.83
88.63
112.56
126.98
133.00
131.82
124.68
112.98
98.57
83.62
70.23
60.00
53.72
51.24
51.71
54.04
57.18
60.39
63.26
65.53
66.91
67.03
65.51
62.10
56.86
50.19
42.64
34.71
26.66
18.48
10.03
1.27
-7.53
-15.86
-23.15
-29.06
-33.74
-37.75
-41.82
-46.56
-52.09
-58.02
-63.65
-68.32
-71.74
-74.15
-76.36
-79.55
-85.08
-94.14
-107.05
-122.72
-138.14
-148.78
-149.64
-137.05
-110.15
-71.55
-26.60
18.31
57.71
88.35
109.34
121.42
125.88
123.84
116.23
104.10
89.04
73.16
58.76
47.70
41.00
38.61
39.66
42.84
46.90
50.89
54.29
56.85
58.43
58.85
57.82
55.13
50.65
44.47
36.84
28.18
18.94
9.63
0.72
-7.39
-14.49
-20.69
-26.40
-32.23
-38.70
-46.00
-53.78
-61.32
-67.78
-72.64
-75.96
-78.40
-81.04
-85.15
-91.94
-102.24
-116.00
-131.73
-146.28
-155.18
-153.72
-138.67
-109.62
-69.47
-23.61
21.78
61.55
92.67
114.30
126.98
131.76
129.65
121.66
109.14
93.94
78.27
64.26
53.47
46.67
43.79
44.13
46.72
50.54
54.65
58.30
60.93
62.19
61.83
59.76
56.01
50.72
44.17
36.67
28.52
19.97
11.20
2.38
-6.23
-14.32
-21.66
-28.22
-34.29
-40.41
-47.08
-54.46
-62.23
-69.71
-76.14
-81.11
-84.83
-88.03
-91.87
-97.57
-106.26
-118.51
-133.90
-150.41
-164.30
-170.66
-164.79
-143.98
-108.76
-63.12
-13.27
34.24
74.44
104.74
124.88
135.87
139.07
135.72
127.03
114.52
100.07
85.83
73.70
64.87
59.66
57.62
57.91
59.62
62.07
64.85
67.65
70.10
71.70
71.82
69.89
65.70
59.47
51.79
43.38
34.88
26.54
18.30
9.96
1.41
-7.14
-15.25
-22.45
-28.52
-33.74
-38.77
-44.34
-50.83
-58.06
-65.36
-71.91
-77.20
-81.32
-84.96
-89.25
-95.44
-104.68
-117.52
-133.38
-150.01
-163.42
-168.58
-160.98
-138.35
-101.82
-55.84
-6.84
38.87
76.74
104.73
122.85
132.19
133.93
129.16
119.06
105.26
89.95
75.49
63.81
55.92
51.81
50.64
51.34
53.07
55.38
58.16
61.34
64.52
66.98
67.79
66.17
61.81
55.04
46.73
37.96
29.66
22.24
15.54
9.02
2.09
-5.45
-13.32
-20.82
-27.24
-32.23
-36.05
-39.48
-43.43
-48.47
-54.52
-60.96
-66.84
-71.48
-74.72
-77.03
-79.40
-83.10
-89.42
-99.24
-112.56
-127.81
-141.62
-149.32
-146.18
-129.13
-98.21
-56.82
-10.76
33.60
71.21
99.34
117.51
126.65
128.16
123.31
113.31
99.61
84.05
68.78
55.77
46.40
41.14
39.60
40.80
43.61
47.07
50.54
53.65
56.15
57.73
58.03
56.65
53.36
48.19
41.50
33.79
25.64
17.42
9.35
1.45
-6.23
-13.60
-20.50
-26.77
-32.48
-37.89
-43.42
-49.38
-55.81
-62.37
-68.43
-73.43
-77.14
-79.89
-82.52
-86.27
-92.46
-102.16
-115.52
-131.21
-146.14
-155.78
-155.32
-141.29
-113.03
-73.15
-26.91
19.45
60.53
92.99
115.70
129.10
134.30
132.46
124.76
112.62
97.96
82.96
69.68
59.54
53.00
49.74
48.95
49.82
51.75
54.41
57.56
60.83
63.63
65.19
64.79
61.97
56.77
49.68
41.57
33.40
25.86
19.19
13.10
6.97
0.23
-7.30
-15.25
-22.83
-29.19
-33.97
-37.42
-40.41
-43.97
-48.81
-54.98
-61.88
-68.55
-74.19
-78.47
-81.71
-84.75
-88.82
-95.22
-105.00
-118.34
-133.86
-148.34
-157.13
-155.33
-139.60
-109.54
-68.15
-20.99
25.63
66.48
98.50
120.75
133.75
138.50
136.03
127.38
114.02
97.93
81.47
66.87
55.68
48.49
44.95
44.10
44.92
46.65
48.90
51.59
54.70
57.97
60.76
62.17
61.31
57.70
51.49
43.52
35.02
27.11
20.40
14.77
9.57
3.99
-2.46
-9.68
-17.03
-23.64
-28.86
-32.54
-35.16
-37.59
-40.72
-45.06
-50.54
-56.61
-62.46
-67.48
-71.45
-74.71
-77.99
-82.31
-88.68
-97.92
-110.18
-124.41
-138.00
-146.92
-146.71
-133.89
-107.52
-69.79
-25.53
19.24
59.16
90.75
112.69
125.30
129.65
126.92
118.24
105.02
89.07
72.52
57.48
45.50
37.32
32.86
31.48
32.33
34.67
37.91
41.61
45.30
48.45
50.47
50.82
49.22
45.72
40.71
34.75
28.43
22.07
15.67
9.02
1.86
-5.77
-13.54
-20.85
-27.16
-32.26
-36.45
-40.41
-44.90
-50.34
-56.60
-63.07
-68.91
-73.52
-76.81
-79.30
-82.01
-86.23
-93.15
-103.38
-116.36
-129.95
-140.50
-143.54
-135.22
-113.76
-80.33
-38.91
4.88
45.52
79.02
103.51
118.95
126.31
126.81
121.56
111.65
98.43
83.57
68.90
56.05
46.09
39.39
35.74
34.58
35.29
37.34
40.24
43.48
46.45
48.49
49.08
47.95
45.13
40.87
35.47
29.18
22.22
14.72
6.84
-1.17
-9.03
-16.48
-23.32
-29.58
-35.48
-41.39
-47.64
-54.35
-61.30
-68.01
-73.87
-78.47
-81.82
-84.45
-87.33
-91.68
-98.70
-109.11
-122.64
-137.47
-150.11
-156.04
-150.91
-132.15
-100.09
-58.17
-11.91
32.70
70.85
99.90
119.26
129.75
132.65
129.23
120.63
108.15
93.42
78.37
64.92
54.52
47.83
44.64
44.08
45.08
46.72
48.45
50.12
51.76
53.32
54.49
54.72
53.29
49.69
43.71
35.64
26.23
16.39
7.03
-1.29
-8.47
-14.85
-21.04
-27.66
-35.02
-43.05
-51.25
-58.94
-65.54
-70.78
-74.84
-78.25
-81.75
-86.19
-92.47
-101.31
-112.87
-126.15
-138.55
-146.07
-144.34
-130.17
-102.98
-65.30
-22.14
20.71
58.37
87.94
108.56
120.68
125.15
122.82
114.58
101.75
86.30
70.52
56.55
45.73
38.39
34.05
31.84
31.06
31.39
32.80
35.33
38.71
42.20
44.76
45.28
43.01
37.90
30.59
22.25
14.07
6.84
0.59
-5.30
-11.81
-19.66
-28.94
-38.96
-48.58
-56.73
-62.88
-67.25
-70.73
-74.60
-80.19
-88.46
-99.59
-112.48
-124.54
-131.92
-130.48
-117.20
-91.45
-55.58
-14.30
26.75
62.69
90.55
109.44
119.89
122.95
119.66
110.98
98.10
82.67
66.69
52.16
40.53
32.46
27.80
25.88
25.96
27.42
29.87
32.94
36.14
38.71
39.76
38.53
34.68
28.52
20.85
12.72
4.94
-2.24
-9.16
-16.54
-25.06
-34.90
-45.61
-56.28
-65.86
-73.67
-79.64
-84.38
-89.06
-95.15
-103.91
-115.81
-129.85
-143.24
-151.69
-150.62
-136.63
-109.03
-70.27
-25.32
19.87
60.18
92.39
115.30
129.15
134.70
132.83
124.57
111.38
95.31
78.74
63.82
51.95
43.56
38.24
35.25
33.98
34.19
35.87
38.90
42.81
46.59
48.95
48.72
45.28
38.85
30.32
20.96
11.89
3.63
-4.01
-11.75
-20.40
-30.41
-41.58
-53.10
-63.83
-72.84
-79.73
-84.83
-89.09
-93.94
-100.91
-111.10
-124.57
-139.68
-152.94
-159.60
-155.00
-136.27
-103.58
-60.39
-12.43
34.13
74.40
105.68
127.30
139.83
144.17
141.20
131.96
118.03
101.61
85.27
71.25
60.98
54.69
51.70
50.84
51.03
51.66
52.60
54.02
55.92
57.92
59.12
58.39
54.77
47.91
38.32
27.27
16.34
6.79
-0.91
-7.28
-13.52
-20.90
-30.09
-40.82
-51.97
-62.07
-69.99
-75.41
-78.95
-81.90
-85.79
-91.99
-101.38
-113.98
-128.51
-142.17
-150.84
-150.01
-136.26
-108.69
-69.58
-23.90
22.18
63.12
95.30
117.29
129.35
132.58
128.25
117.79
102.93
85.85
69.05
54.79
44.62
39.00
37.38
38.58
41.29
44.60
48.01
51.35
54.44
56.86
57.89
56.70
52.73
45.99
37.09
27.12
17.26
8.28
0.35
-7.02
-14.64
-23.19
-32.76
-42.77
-52.15
-59.84
-65.32
-68.82
-71.38
-74.51
-79.79
-88.34
-100.29
-114.18
-126.94
-134.27
-131.86
-116.83
-88.98
-51.16
-8.48
33.28
69.32
96.84
115.06
124.55
126.37
121.57
111.25
96.87
80.44
64.33
50.86
41.64
37.15
36.78
39.12
42.57
45.86
48.34
49.93
50.90
51.39
51.23
49.85
46.58
40.89
32.80
22.94
12.40
2.37
-6.30
-13.38
-19.32
-25.04
-31.47
-39.16
-47.95
-57.09
-65.47
-72.14
-76.71
-79.47
-81.41
-83.89
-88.37
-96.07
-107.49
-121.96
-137.10
-148.99
-152.86
-144.54
-122.10
-86.81
-42.99
3.28
46.08
81.19
106.73
122.74
130.24
130.45
124.49
113.62
99.50
84.29
70.27
59.29
52.38
49.54
49.94
52.37
55.61
58.77
61.31
62.98
63.64
63.14
61.28
57.86
52.79
46.19
38.33
29.61
20.46
11.29
2.46
-5.76
-13.14
-19.62
-25.30
-30.52
-35.72
-41.36
-47.64
-54.37
-61.09
-67.17
-72.10
-75.79
-78.71
-81.75
-86.18
-93.28
-103.89
-117.87
-133.48
-147.31
-154.77
-151.34
-134.17
-103.39
-62.25
-16.29
28.38
66.89
96.44
116.41
127.53
130.98
127.90
119.45
107.06
92.64
78.42
66.43
57.98
53.33
51.82
52.27
53.59
55.12
56.74
58.62
60.82
63.03
64.51
64.32
61.70
56.40
48.83
39.93
30.90
22.72
15.87
10.20
5.02
-0.49
-6.88
-14.09
-21.45
-27.95
-32.75
-35.61
-37.11
-38.36
-40.59
-44.57
-50.33
-57.16
-64.01
-69.94
-74.48
-77.84
-80.75
-84.37
-90.02
-98.75
-110.87
-125.30
-139.27
-148.56
-148.52
-135.70
-109.25
-71.59
-27.74
16.13
54.62
84.35
104.22
114.88
117.74
114.25
105.76
93.63
79.52
65.31
52.79
43.25
37.19
34.37
34.06
35.44
37.88
40.97
44.41
47.80
50.61
52.19
52.00
49.81
45.75
40.31
34.07
27.54
20.97
14.34
7.54
0.55
-6.44
-13.06
-18.90
-23.80
-27.93
-31.78
-35.86
-40.48
-45.54
-50.59
-55.07
-58.59
-61.11
-63.02
-65.04
-68.10
-73.24
-81.31
-92.46
-105.58
-117.99
-125.74
-124.64
-111.80
-86.80
-52.22
-12.82
25.94
59.52
85.24
102.34
111.37
113.36
109.36
100.47
88.00
73.62
59.21
46.55
36.90
30.82
28.14
28.16
29.95
32.58
35.33
37.76
39.66
40.94
41.49
41.10
39.50
36.46
31.91
25.92
18.74
10.79
2.50
-5.59
-13.00
-19.41
-24.82
-29.56
-34.28
-39.62
-45.92
-53.01
-60.25
-66.82
-72.03
-75.70
-78.17
-80.27
-83.13
-87.96
-95.81
-107.04
-120.78
-134.52
-144.26
-145.45
-134.46
-110.14
-74.47
-32.13
11.01
49.65
80.39
102.10
115.23
120.96
120.40
114.47
104.13
90.70
76.05
62.18
50.82
42.96
38.68
37.31
37.83
39.29
41.04
42.82
44.52
46.05
47.09
47.16
45.71
42.32
36.85
29.49
20.71
11.22
1.74
-7.06
-14.76
-21.29
-26.99
-32.49
-38.55
-45.67
-53.86
-62.58
-70.90
-77.91
-83.10
-86.64
-89.36
-92.55
-97.66
-105.93
-117.88
-132.85
-148.55
-161.14
-165.94
-158.77
-137.46
-102.84
-58.73
-10.87
34.79
73.66
103.31
123.32
134.44
137.89
134.81
126.41
114.17
99.90
85.62
73.10
63.54
57.37
54.31
53.68
54.65
56.51
58.71
60.80
62.44
63.30
63.08
61.49
58.33
53.48
46.96
38.97
29.88
20.17
10.40
1.12
-7.28
-14.69
-21.35
-27.78
-34.62
-42.33
-50.96
-60.10
-69.01
-76.87
-83.19
-87.96
-91.71
-95.46
-100.49
-108.17
-119.49
-134.43
-151.31
-166.54
-175.12
-172.02
-153.94
-120.67
-75.48
-24.20
26.58
71.32
106.68
131.55
146.43
152.49
151.07
143.52
131.40
116.60
101.15
86.93
75.31
66.91
61.70
59.16
58.60
59.31
60.76
62.52
64.28
65.76
66.66
66.61
65.18
61.97
56.70
49.34
40.20
29.86
19.14
8.81
-0.52
-8.65
-15.81
-22.58
-29.69
-37.64
-46.51
-55.82
-64.73
-72.35
-78.14
-82.16
-85.05
-87.94
-92.14
-98.88
-109.02
-122.51
-137.86
-151.92
-160.21
-158.02
-142.04
-111.71
-69.76
-21.54
26.62
69.20
102.69
125.87
139.13
143.64
140.66
131.48
117.55
100.78
83.36
67.53
54.97
46.50
41.92
40.35
40.66
41.97
43.81
46.14
48.99
52.13
54.91
56.28
55.22
51.03
43.77
34.27
23.86
13.91
5.37
-1.68
-7.87
-14.31
-21.95
-31.18
-41.55
-51.99
-61.24
-68.39
-73.23
-76.37
-79.05
-82.79
-89.06
-98.74
-111.58
-125.83
-138.15
-144.18
-139.80
-122.48
-92.39
-52.59
-8.21
35.11
72.67
101.66
121.14
131.54
133.89
129.39
119.30
105.11
88.68
72.05
57.19
45.50
37.63
33.39
31.95
32.27
33.44
34.93
36.61
38.52
40.61
42.41
43.07
41.64
37.39
30.29
21.08
11.03
1.46
-6.79
-13.70
-20.02
-26.89
-35.17
-45.07
-55.94
-66.55
-75.63
-82.43
-87.03
-90.34
-93.82
-99.13
-107.58
-119.69
-134.57
-149.62
-160.74
-163.18
-152.97
-128.47
-91.17
-45.46
2.67
47.43
84.70
112.51
130.69
140.04
141.59
136.33
125.47
110.64
93.97
77.73
63.83
53.44
46.80
43.37
42.27
42.63
43.83
45.63
47.94
50.57
53.09
54.67
54.30
51.16
44.93
36.01
25.45
14.62
4.65
-3.91
-11.32
-18.39
-26.16
-35.31
-45.86
-57.11
-67.87
-76.95
-83.62
-88.00
-90.96
-93.96
-98.61
-106.25
-117.54
-131.88
-147.08
-159.34
-163.97
-156.60
-134.76
-98.96
-52.93
-2.57
45.76
86.95
118.16
138.80
149.72
152.33
147.97
137.85
123.41
106.49
89.27
73.89
61.91
53.98
49.83
48.63
49.38
51.25
53.71
56.43
59.07
61.22
62.33
61.86
59.39
54.70
47.86
39.20
29.36
19.15
9.40
0.72
-6.72
-13.20
-19.38
-25.98
-33.51
-42.02
-51.08
-59.97
-67.93
-74.44
-79.47
-83.40
-87.07
-91.58
-98.13
-107.70
-120.44
-135.01
-148.37
-156.09
-153.56
-137.60
-107.79
-66.88
-20.12
26.36
67.27
99.31
121.28
133.56
137.21
133.46
123.61
109.16
92.05
74.56
58.90
46.77
38.99
35.38
35.02
36.67
39.23
42.01
44.75
47.44
50.09
52.38
53.65
53.06
49.87
43.83
35.35
25.46
15.43
6.37
-1.19
-7.44
-13.17
-19.31
-26.58
-35.10
-44.32
-53.29
-60.96
-66.67
-70.34
-72.53
-74.37
-77.23
-82.43
-90.83
-102.34
-115.51
-127.44
-134.16
-131.68
-117.25
-90.46
-53.68
-11.49
30.62
67.73
96.57
115.85
125.85
127.73
122.94
112.89
99.08
83.18
67.05
52.49
40.94
33.16
29.19
28.46
30.07
33.12
36.85
40.66
44.06
46.62
47.96
47.82
46.10
42.84
38.17
32.27
25.32
17.54
9.27
0.96
-6.90
-13.94
-20.08
-25.55
-30.82
-36.39
-42.54
-49.20
-55.95
-62.19
-67.43
-71.45
-74.44
-76.99
-80.01
-84.58
-91.76
-102.13
-115.23
-129.16
-140.45
-144.83
-138.39
-119.06
-87.53
-47.33
-3.80
37.50
72.22
98.03
114.51
122.46
123.15
117.84
107.78
94.41
79.40
64.65
51.85
42.19
36.11
33.32
33.11
34.66
37.28
40.47
43.86
47.05
49.57
50.88
50.55
48.35
44.32
38.70
31.88
24.22
16.07
7.79
-0.26
-7.75
-14.47
-20.46
-26.00
-31.49
-37.30
-43.54
-49.99
-56.21
-61.70
-66.17
-69.65
-72.50
-75.36
-79.09
-84.63
-92.76
-103.67
-116.32
-128.24
-135.71
-134.69
-122.22
-97.61
-62.92
-22.57
18.06
54.13
82.48
101.94
112.86
116.36
113.69
106.05
94.66
80.98
66.73
53.59
42.92
35.47
31.26
29.76
30.21
31.81
33.97
36.30
38.56
40.56
42.06
42.66
41.85
39.14
34.32
27.52
19.36
10.71
2.43
-4.91
-11.20
-16.79
-22.26
-28.17
-34.84
-42.16
-49.67
-56.69
-62.59
-67.01
-70.04
-72.20
-74.38
-77.68
-83.19
-91.64
-102.93
-115.69
-127.15
-133.58
-131.30
-117.96
-93.46
-60.25
-22.58
14.69
47.44
73.02
90.38
99.64
101.56
97.20
87.86
75.15
60.91
47.08
35.30
26.71
21.64
19.80
20.42
22.64
25.73
29.20
32.74
36.06
38.66
39.90
39.09
35.79
30.02
22.39
13.88
5.48
-2.18
-9.04
-15.57
-22.46
-30.16
-38.64
-47.30
-55.22
-61.59
-66.06
-68.98
-71.30
-74.42
-79.73
-88.08
-99.25
-111.62
-122.16
-127.09
-122.92
-107.67
-81.65
-47.59
-9.81
26.96
58.81
83.31
99.52
107.60
108.32
102.78
92.41
79.00
64.68
51.60
41.51
35.36
33.16
34.07
36.83
40.21
43.37
46.01
48.11
49.75
50.74
50.55
48.45
43.88
36.79
27.78
17.95
8.53
0.29
-6.71
-13.06
-19.70
-27.36
-36.15
-45.51
-54.45
-61.98
-67.59
-71.47
-74.43
-77.75
-82.83
-90.84
-102.25
-116.37
-130.97
-142.43
-146.42
-139.19
-118.90
-86.51
-45.67
-1.69
39.99
75.17
101.60
118.78
127.36
128.42
123.25
113.31
100.42
86.64
74.03
64.20
57.99
55.45
55.94
58.61
62.52
66.84
70.85
73.89
75.42
75.08
72.71
68.35
62.26
54.80
46.38
37.43
28.22
18.96
9.66
0.36
-8.87
-17.75
-25.90
-32.99
-38.97
-44.14
-49.17
-54.77
-61.43
-69.20
-77.68
-86.21
-94.19
-101.39
-108.13
-115.23
-123.97
-135.60
-150.80
-168.87
-187.27
-201.75
-207.16
-199.05
-175.21
-136.67
-87.52
-33.78
18.39
64.18
100.86
127.73
145.36
154.85
157.42
154.32
147.09
137.57
127.81
119.63
114.24
111.89
111.95
113.33
114.89
115.88
116.06
115.54
114.45
112.70
109.83
105.23
98.39
89.24
78.27
66.48
55.04
44.91
36.59
29.91
24.24
18.70
12.60
5.69
-1.72
-8.91
-15.10
-19.78
-23.03
-25.52
-28.24
-32.21
-37.96
-45.37
-53.73
-62.02
-69.31
-75.19
-79.84
-84.08
-89.11
-96.27
-106.50
-119.79
-134.63
-147.91
-155.36
-152.67
-136.99
-108.06
-68.60
-23.68
20.81
59.71
89.76
109.80
120.25
122.45
117.91
108.23
95.11
80.51
66.53
55.11
47.60
44.45
45.20
48.65
53.37
58.11
62.11
65.05
67.02
68.08
68.15
66.89
63.89
58.87
51.91
43.56
34.64
26.10
18.66
12.60
7.84
3.95
0.38
-3.36
-7.52
-12.07
-16.67
-20.82
-24.05
-26.21
-27.62
-29.01
-31.28
-35.10
-40.60
-47.29
-54.27
-60.60
-65.72
-69.67
-73.04
-76.76
-81.92
-89.43
-99.63
-111.90
-124.30
-133.56
-135.81
-127.69
-107.63
-76.68
-38.43
2.05
39.61
70.42
92.56
105.84
111.18
109.86
103.14
92.29
78.81
64.50
51.33
41.02
34.68
32.47
33.72
37.18
41.54
45.70
49.09
51.48
52.93
53.52
53.21
51.81
49.10
44.92
39.34
32.73
25.65
18.70
12.34
6.77
1.89
-2.57
-6.91
-11.30
-15.78
-20.19
-24.26
-27.72
-30.40
-32.42
-34.17
-36.31
-39.50
-44.15
-50.13
-56.87
-63.56
-69.45
-74.23
-78.09
-81.66
-85.84
-91.64
-99.91
-110.98
-124.18
-137.47
-147.43
-150.02
-141.72
-120.91
-88.71
-48.84
-6.56
32.85
65.47
89.36
104.37
111.44
111.88
106.94
97.88
86.10
73.24
61.05
50.99
43.98
40.24
39.37
40.64
43.29
46.67
50.30
53.81
56.81
58.88
59.66
58.84
56.28
52.06
46.42
39.79
32.69
25.61
18.94
12.89
7.49
2.65
-1.75
-5.86
-9.76
-13.57
-17.33
-21.08
-24.71
-28.07
-30.98
-33.45
-35.78
-38.53
-42.32
-47.57
-54.19
-61.62
-69.01
-75.58
-81.01
-85.55
-89.93
-95.22
-102.46
-112.39
-124.99
-139.04
-151.89
-159.80
-158.73
-145.69
-119.92
-83.42
-40.54
3.27
42.99
75.18
98.33
112.59
118.97
118.79
113.34
103.96
92.12
79.42
67.50
57.68
50.75
46.89
45.71
46.51
48.58
51.36
54.49
57.75
60.89
63.56
65.21
65.22
63.11
58.70
52.22
44.33
35.96
27.99
21.04
15.27
10.40
5.87
1.06
-4.38
-10.44
-16.69
-22.46
-27.17
-30.51
-32.75
-34.55
-36.80
-40.25
-45.15
-51.23
-57.76
-63.91
-69.04
-73.02
-76.26
-79.66
-84.45
-91.76
-102.24
-115.43
-129.35
-140.56
-144.88
-138.60
-119.80
-89.27
-50.36
-8.07
32.46
67.16
93.75
111.56
121.03
123.10
118.90
109.70
97.07
82.83
68.86
56.77
47.57
41.62
38.70
38.24
39.66
42.42
46.07
50.15
54.06
57.10
58.60
58.08
55.43
50.94
45.14
38.65
31.92
25.13
18.22
11.00
3.37
-4.55
-12.43
-19.86
-26.53
-32.42
-37.79
-43.08
-48.69
-54.73
-60.97
-66.94
-72.13
-76.34
-79.81
-83.22
-87.61
-94.14
-103.62
-116.07
-130.17
-143.09
-150.82
-149.19
-135.22
-108.32
-70.76
-27.17
16.86
56.31
87.91
110.41
124.11
130.02
129.28
122.91
112.04
98.10
82.89
68.31
55.99
46.97
41.47
39.13
39.18
40.84
43.45
46.51
49.63
52.42
54.46
55.29
54.47
51.64
46.68
39.70
31.12
21.60
11.92
2.77
-5.41
-12.57
-19.03
-25.43
-32.42
-40.39
-49.30
-58.65
-67.65
-75.53
-81.84
-86.67
-90.64
-94.74
-100.21
-108.21
-119.49
-133.74
-149.14
-162.22
-168.40
-163.22
-143.95
-110.73
-66.84
-17.84
30.13
71.98
104.70
127.41
140.71
145.86
144.13
136.74
124.99
110.49
95.05
80.52
68.38
59.48
53.89
51.13
50.42
51.04
52.47
54.44
56.75
59.14
61.10
61.94
60.87
57.32
51.10
42.55
32.47
21.86
11.71
2.58
-5.47
-12.85
-20.32
-28.60
-38.10
-48.72
-59.87
-70.59
-79.94
-87.28
-92.52
-96.28
-99.76
-104.57
-112.30
-123.87
-138.87
-154.99
-168.15
-173.26
-165.82
-143.44
-106.96
-60.39
-9.72
38.79
80.30
112.13
133.77
145.98
149.98
146.95
138.03
124.57
108.40
91.69
76.58
64.63
56.54
52.07
50.39
50.53
51.73
53.63
56.12
59.06
62.09
64.47
65.27
63.54
58.76
50.95
40.79
29.45
18.25
8.21
-0.25
-7.44
-14.24
-21.64
-30.31
-40.27
-50.86
-61.01
-69.73
-76.49
-81.43
-85.29
-89.21
-94.46
-102.22
-113.15
-126.87
-141.48
-153.45
-158.18
-151.36
-130.54
-96.29
-52.31
-4.42
41.27
79.95
108.98
127.82
137.20
138.38
132.63
121.35
106.23
89.34
72.92
58.87
48.38
41.71
38.35
37.46
38.28
40.27
43.16
46.65
50.19
52.92
53.81
52.06
47.36
40.17
31.46
22.40
13.81
5.89
-1.83
-10.12
-19.56
-30.14
-41.23
-51.74
-60.66
-67.49
-72.46
-76.48
-80.93
-87.25
-96.42
-108.41
-121.67
-133.05
-138.34
-133.44
-115.88
-85.87
-46.52
-2.98
39.12
75.22
102.65
120.69
129.82
131.07
125.58
114.67
99.98
83.51
67.39
53.43
42.74
35.61
31.72
30.37
30.91
32.77
35.46
38.49
41.19
42.78
42.52
39.90
34.88
27.93
19.86
11.53
3.48
-4.27
-12.15
-20.75
-30.42
-41.01
-51.84
-61.94
-70.49
-77.16
-82.37
-87.25
-93.34
-102.07
-114.02
-128.24
-141.93
-150.81
-150.30
-136.99
-110.10
-71.92
-27.27
17.99
58.60
91.11
114.10
127.73
132.93
130.84
122.67
109.87
94.34
78.31
63.87
52.49
44.72
40.23
38.19
37.76
38.43
40.04
42.52
45.56
48.40
49.93
49.03
45.05
38.10
29.07
19.21
9.68
1.06
-6.87
-14.85
-23.72
-33.83
-44.88
-55.92
-65.85
-73.85
-79.72
-83.99
-87.77
-92.48
-99.56
-109.90
-123.27
-137.80
-149.91
-154.95
-148.59
-128.43
-95.10
-52.30
-5.78
38.49
75.88
103.92
122.22
131.67
133.57
129.20
119.80
106.82
92.03
77.46
65.00
55.99
50.92
49.43
50.47
52.79
55.32
57.43
58.96
60.03
60.74
60.81
59.62
56.35
50.46
41.94
31.52
20.43
9.94
0.92
-6.49
-12.83
-18.98
-25.74
-33.54
-42.19
-51.09
-59.40
-66.33
-71.50
-75.02
-77.59
-80.30
-84.50
-91.40
-101.66
-114.83
-128.92
-140.42
-144.91
-138.39
-118.68
-86.51
-45.51
-1.24
40.50
75.26
100.74
116.67
123.98
123.97
117.86
106.78
92.19
76.01
60.49
47.71
39.10
35.09
35.06
37.76
41.73
45.76
49.09
51.41
52.70
53.01
52.32
50.45
47.17
42.28
35.77
27.87
19.09
10.13
1.73
-5.60
-11.73
-16.96
-21.91
-27.25
-33.35
-40.09
-46.93
-53.07
-57.91
-61.22
-63.32
-64.94
-66.99
-70.42
-76.12
-84.73
-96.19
-109.30
-121.36
-128.40
-126.30
-112.15
-85.66
-49.58
-8.97
30.40
63.78
88.51
104.07
111.26
111.39
105.60
94.92
80.67
64.67
49.15
36.27
27.52
23.35
23.13
25.55
29.14
32.76
35.80
38.17
40.03
41.50
42.40
42.23
40.36
36.27
29.87
21.56
12.21
2.92
-5.41
-12.26
-17.77
-22.58
-27.58
-33.55
-40.71
-48.67
-56.49
-63.15
-67.92
-70.75
-72.27
-73.53
-75.80
-80.23
-87.64
-98.16
-110.80
-123.16
-131.58
-132.00
-121.21
-98.15
-64.62
-24.87
15.66
51.98
80.75
100.63
111.89
115.59
112.94
105.09
93.28
79.05
64.25
50.81
40.33
33.70
30.93
31.28
33.58
36.66
39.69
42.23
44.19
45.58
46.29
46.02
44.31
40.73
35.03
27.36
18.27
8.62
-0.65
-8.76
-15.37
-20.74
-25.57
-30.74
-36.91
-44.21
-52.15
-59.83
-66.37
-71.23
-74.49
-76.76
-79.03
-82.43
-88.08
-96.83
-108.82
-123.01
-136.77
-146.14
-146.70
-135.08
-110.32
-74.49
-32.18
10.86
49.47
80.26
101.97
114.93
120.23
119.11
112.70
102.21
89.18
75.45
62.91
53.08
46.76
43.96
43.97
45.81
48.51
51.38
53.96
56.01
57.30
57.54
56.41
53.70
49.34
43.50
36.46
28.62
20.32
11.88
3.57
-4.36
-11.67
-18.25
-24.15
-29.65
-35.17
-41.12
-47.62
-54.48
-61.18
-67.15
-71.97
-75.61
-78.48
-81.35
-85.23
-91.27
-100.40
-112.76
-127.21
-140.88
-149.58
-148.85
-135.50
-108.94
-71.70
-28.71
14.22
52.05
81.71
102.15
113.86
117.94
115.56
107.86
96.13
82.01
67.48
54.51
44.68
38.77
36.73
37.77
40.78
44.67
48.62
52.12
54.88
56.73
57.44
56.77
54.48
50.53
45.03
38.32
30.77
22.73
14.48
6.21
-1.85
-9.45
-16.41
-22.71
-28.58
-34.41
-40.58
-47.19
-53.92
-60.19
-65.37
-69.15
-71.76
-73.92
-76.66
-81.14
-88.36
-98.85
-112.23
-126.73
-139.11
-145.21
-141.09
-124.44
-95.67
-57.97
-16.36
23.86
58.65
85.90
105.23
117.22
122.59
121.85
115.53
104.58
90.63
75.87
62.47
52.07
45.38
42.20
41.77
43.22
45.79
48.96
52.32
55.44
57.80
58.91
58.38
56.08
52.04
46.38
39.28
30.94
21.68
11.97
2.39
-6.54
-14.53
-21.63
-28.26
-34.93
-42.08
-49.79
-57.75
-65.39
-72.11
-77.57
-81.81
-85.30
-88.87
-93.57
-100.52
-110.55
-123.72
-138.77
-152.77
-161.46
-160.38
-146.22
-118.30
-79.00
-33.18
13.23
54.98
88.58
112.67
127.46
133.99
133.53
127.33
116.77
103.46
89.24
75.92
64.97
57.29
53.03
51.75
52.61
54.70
57.31
59.97
62.49
64.67
66.24
66.75
65.63
62.40
56.87
49.21
39.92
29.71
19.35
9.48
0.51
-7.47
-14.64
-21.52
-28.65
-36.46
-45.03
-53.97
-62.62
-70.25
-76.41
-81.13
-84.92
-88.66
-93.50
-100.62
-110.95
-124.62
-140.35
-155.16
-164.61
-163.96
-149.78
-121.32
-81.13
-34.31
13.00
55.50
89.81
114.73
130.50
138.00
138.15
131.85
120.27
105.19
88.87
73.69
61.57
53.53
49.55
48.86
50.36
53.03
56.13
59.24
62.11
64.50
66.04
66.22
64.50
60.44
53.89
45.13
34.79
23.82
13.18
3.62
-4.58
-11.65
-18.22
-24.97
-32.48
-40.87
-49.80
-58.59
-66.42
-72.69
-77.23
-80.48
-83.37
-87.20
-93.32
-102.71
-115.39
-129.95
-143.36
-151.38
-149.66
-135.19
-107.49
-69.07
-24.73
19.84
59.63
91.40
113.85
127.12
132.03
129.59
120.95
107.62
91.57
75.14
60.56
49.45
42.47
39.30
38.98
40.34
42.49
44.95
47.63
50.51
53.29
55.27
55.43
52.89
47.24
38.85
28.77
18.41
8.93
0.79
-6.35
-13.42
-21.44
-30.98
-41.79
-52.91
-63.04
-71.09
-76.64
-80.16
-82.82
-86.22
-91.98
-101.21
-114.02
-129.00
-143.08
-151.93
-151.04
-137.22
-109.86
-71.47
-26.95
17.84
57.81
89.72
112.40
126.14
131.84
130.48
122.99
110.57
94.96
78.40
63.24
51.43
43.96
40.74
40.84
42.91
45.75
48.63
51.34
53.94
56.34
58.09
58.28
55.93
50.41
41.79
30.98
19.42
8.55
-0.74
-8.43
-15.29
-22.46
-30.91
-40.94
-52.06
-63.11
-72.83
-80.27
-85.25
-88.40
-91.06
-94.85
-101.43
-111.90
-126.22
-142.74
-158.01
-167.22
-165.55
-149.75
-119.47
-77.69
-29.87
17.74
59.89
93.38
117.22
131.88
138.39
137.81
131.18
119.73
105.23
89.87
75.91
65.16
58.58
56.12
56.90
59.63
63.02
66.18
68.67
70.44
71.52
71.74
70.69
67.72
62.31
54.27
44.03
32.54
21.04
10.63
1.88
-5.36
-11.87
-18.74
-26.79
-36.23
-46.53
-56.63
-65.37
-72.03
-76.60
-79.78
-82.73
-86.77
-93.16
-102.76
-115.72
-130.94
-145.77
-156.12
-157.36
-145.84
-120.32
-82.76
-37.91
8.20
50.02
83.82
108.13
123.14
129.90
129.52
123.06
111.72
97.15
81.49
67.00
55.62
48.45
45.59
46.24
49.13
53.00
56.82
60.03
62.34
63.59
63.65
62.29
59.31
54.59
48.16
40.26
31.28
21.76
12.27
3.39
-4.53
-11.43
-17.59
-23.57
-29.97
-37.12
-44.91
-52.79
-59.98
-65.78
-69.89
-72.54
-74.43
-76.61
-80.24
-86.42
-95.93
-108.69
-123.27
-136.69
-144.74
-143.09
-128.81
-101.64
-64.32
-21.92
19.84
56.19
84.39
103.67
114.59
118.15
115.26
106.84
94.16
79.05
63.82
50.71
41.36
36.40
35.40
37.23
40.53
44.15
47.38
49.93
51.78
52.90
53.18
52.34
50.02
45.87
39.72
31.66
22.15
11.95
2.00
-6.92
-14.39
-20.57
-26.05
-31.67
-38.03
-45.28
-53.03
-60.52
-66.96
-71.90
-75.37
-77.94
-80.53
-84.26
-90.32
-99.61
-112.33
-127.37
-141.99
-152.01
-152.83
-140.97
-115.51
-78.63
-35.16
8.99
48.57
80.20
102.65
116.27
122.13
121.35
115.05
104.51
91.34
77.52
64.97
55.22
49.09
46.59
47.09
49.58
53.01
56.48
59.41
61.50
62.61
62.62
61.32
58.45
53.80
47.41
39.55
30.70
21.43
12.22
3.47
-4.59
-11.83
-18.26
-24.07
-29.66
-35.46
-41.83
-48.78
-55.95
-62.74
-68.57
-73.14
-76.66
-79.76
-83.41
-88.72
-96.77
-108.17
-122.57
-138.15
-151.42
-157.84
-153.08
-134.59
-102.80
-61.20
-15.40
28.68
66.34
95.02
114.19
124.61
127.48
124.02
115.47
103.28
89.29
75.51
63.78
55.32
50.60
49.25
50.39
53.01
56.22
59.43
62.25
64.39
65.44
64.97
62.58
58.14
51.94
44.58
36.77
29.00
21.45
13.93
6.19
-1.87
-10.01
-17.69
-24.39
-29.83
-34.29
-38.37
-42.83
-48.14
-54.26
-60.64
-66.50
-71.27
-74.82
-77.67
-80.83
-85.60
-93.24
-104.42
-118.66
-133.80
-146.02
-150.64
-143.49
-122.55
-88.98
-46.93
-2.29
39.17
73.38
98.48
114.44
122.14
122.56
116.61
105.46
90.81
75.00
60.47
49.21
42.19
39.28
39.49
41.51
44.17
46.73
48.89
50.63
52.02
52.93
53.01
51.72
48.48
42.95
35.23
25.92
16.01
6.57
-1.68
-8.50
-14.27
-19.78
-25.80
-32.85
-40.86
-49.25
-57.17
-63.78
-68.62
-71.83
-74.11
-76.56
-80.48
-87.07
-97.02
-110.06
-124.46
-136.91
-143.09
-138.85
-121.75
-92.16
-53.38
-10.69
30.31
65.28
91.95
109.89
119.81
122.64
119.19
110.30
97.26
81.95
66.66
53.63
44.38
39.45
38.38
40.02
43.10
46.55
49.70
52.23
53.98
54.79
54.48
52.81
49.61
44.85
38.64
31.20
22.87
14.04
5.10
-3.53
-11.55
-18.74
-25.15
-31.03
-36.85
-43.05
-49.88
-57.19
-64.48
-71.08
-76.44
-80.44
-83.48
-86.47
-90.63
-97.21
-107.13
-120.44
-135.73
-149.96
-158.74
-157.44
-142.82
-114.36
-74.76
-29.19
16.29
56.54
88.41
110.93
124.58
130.38
129.43
122.81
111.86
98.36
84.37
71.85
62.12
55.71
52.39
51.49
52.24
54.03
56.38
58.88
61.04
62.32
62.21
60.37
56.71
51.45
44.99
37.78
30.16
22.31
14.25
5.99
-2.35
-10.47
-17.96
-24.47
-29.97
-34.82
-39.65
-45.07
-51.33
-58.12
-64.77
-70.52
-74.96
-78.23
-81.05
-84.47
-89.72
-97.88
-109.47
-123.95
-139.20
-151.47
-156.10
-148.91
-127.79
-93.84
-51.22
-5.94
36.07
70.52
95.54
111.24
118.80
119.57
114.65
105.05
92.11
77.61
63.64
52.11
44.26
40.41
39.98
41.80
44.66
47.61
50.17
52.31
54.17
55.70
56.52
55.85
52.81
46.88
38.19
27.64
16.60
6.43
-2.05
-8.82
-14.61
-20.44
-27.15
-35.00
-43.55
-51.93
-59.20
-64.74
-68.52
-71.03
-73.16
-76.00
-80.69
-88.22
-99.12
-112.89
-127.53
-139.45
-144.22
-137.84
-118.32
-86.66
-46.70
-3.94
36.19
69.74
94.86
111.36
119.95
121.50
116.81
106.84
93.05
77.48
62.48
50.12
41.70
37.45
36.67
38.11
40.51
43.01
45.26
47.32
49.27
50.94
51.72
50.74
47.17
40.68
31.60
20.95
10.09
0.21
-8.08
-14.98
-21.30
-28.13
-36.20
-45.63
-55.82
-65.72
-74.28
-80.91
-85.71
-89.41
-93.17
-98.26
-105.94
-117.03
-131.47
-147.77
-162.67
-171.56
-169.65
-153.68
-123.31
-81.59
-34.08
12.96
54.37
87.21
110.72
125.51
132.52
132.60
126.52
115.49
101.34
86.47
73.25
63.41
57.68
55.72
56.54
58.91
61.82
64.60
66.99
68.90
70.19
70.61
69.63
66.65
61.21
53.18
42.97
31.50
19.99
9.54
0.73
-6.61
-13.32
-20.56
-29.19
-39.39
-50.51
-61.35
-70.68
-77.75
-82.64
-86.15
-89.64
-94.61
-102.52
-114.26
-129.76
-147.34
-163.50
-173.34
-171.89
-155.79
-124.72
-81.78
-32.64
16.29
59.66
94.24
119.02
134.38
141.22
140.49
133.18
120.76
105.32
89.39
75.49
65.40
59.79
58.19
59.30
61.63
64.02
65.92
67.37
68.63
69.80
70.51
69.93
67.04
61.11
52.06
40.60
28.05
15.95
5.45
-3.03
-9.92
-16.26
-23.23
-31.57
-41.27
-51.56
-61.23
-69.18
-74.89
-78.64
-81.42
-84.58
-89.55
-97.53
-109.08
-123.67
-139.19
-151.98
-157.37
-151.04
-130.60
-96.73
-53.20
-5.86
39.23
77.39
106.10
124.92
134.58
136.21
130.96
120.12
105.40
89.05
73.58
61.15
53.06
49.40
49.17
50.86
53.06
54.97
56.49
57.96
59.56
61.02
61.41
59.58
54.63
46.42
35.75
24.08
12.95
3.38
-4.53
-11.55
-18.89
-27.53
-37.77
-48.98
-59.91
-69.15
-75.83
-79.95
-82.44
-84.89
-89.07
-96.55
-108.06
-123.10
-139.43
-153.18
-159.54
-154.07
-134.35
-101.03
-57.87
-10.69
34.49
73.06
102.63
122.82
134.36
138.21
135.18
126.12
112.41
96.09
79.73
65.74
55.81
50.51
49.28
50.86
53.84
57.09
59.96
62.19
63.70
64.35
63.82
61.66
57.42
50.85
42.01
31.40
19.82
8.31
-2.21
-11.18
-18.59
-25.05
-31.51
-38.89
-47.62
-57.40
-67.34
-76.31
-83.47
-88.59
-92.17
-95.26
-99.18
-105.27
-114.67
-127.86
-144.02
-160.57
-173.19
-176.75
-166.84
-141.53
-102.34
-53.97
-2.86
44.74
84.33
113.80
132.96
142.77
144.49
139.42
129.05
115.20
100.08
85.92
74.53
66.91
63.15
62.58
64.20
67.05
70.41
73.80
76.86
79.16
80.14
79.18
75.86
70.15
62.47
53.55
44.24
35.10
26.31
17.70
8.98
0.03
-8.93
-17.45
-25.07
-31.67
-37.59
-43.45
-49.85
-56.99
-64.54
-71.83
-78.13
-83.14
-87.07
-90.67
-95.06
-101.47
-111.01
-124.18
-140.27
-156.87
-169.85
-174.17
-165.48
-141.77
-104.40
-57.93
-8.64
37.33
75.62
104.18
122.91
132.70
134.67
129.92
119.69
105.69
90.10
75.26
63.14
54.93
50.80
50.12
51.83
54.86
58.34
61.70
64.54
66.50
67.18
66.22
63.40
58.80
52.71
45.58
37.80
29.59
21.06
12.30
3.50
-5.00
-12.77
-19.54
-25.34
-30.56
-35.78
-41.52
-47.96
-54.78
-61.38
-67.11
-71.64
-75.14
-78.26
-82.01
-87.51
-95.79
-107.31
-121.41
-135.90
-147.04
-150.30
-141.79
-119.77
-85.52
-43.18
1.52
43.03
77.35
102.56
118.49
125.91
125.84
119.40
107.97
93.30
77.58
63.02
51.34
43.51
39.58
38.91
40.55
43.48
46.92
50.29
53.15
55.16
55.96
55.24
52.80
48.64
42.92
35.97
28.17
19.85
11.27
2.64
-5.83
-13.86
-21.14
-27.50
-33.02
-38.11
-43.40
-49.43
-56.35
-63.81
-71.06
-77.29
-82.05
-85.51
-88.43
-92.02
-97.58
-106.21
-118.40
-133.50
-149.32
-162.10
-167.20
-160.38
-139.40
-105.06
-61.26
-13.80
31.30
69.49
98.43
117.78
128.36
131.34
127.80
118.87
106.01
91.11
76.37
63.79
54.73
49.64
48.13
49.26
52.00
55.47
59.08
62.42
65.04
66.48
66.23
63.93
59.55
53.44
46.19
38.40
30.45
22.41
14.14
5.47
-3.52
-12.47
-20.84
-28.16
-34.34
-39.73
-45.01
-50.85
-57.58
-64.98
-72.37
-78.99
-84.33
-88.46
-92.08
-96.33
-102.59
-112.08
-125.32
-141.51
-158.06
-170.72
-174.46
-165.01
-140.54
-102.55
-55.61
-5.97
40.31
78.94
107.93
127.17
137.54
140.15
136.09
126.62
113.41
98.60
84.41
72.68
64.42
59.72
57.98
58.30
59.91
62.34
65.38
68.76
71.96
74.13
74.32
71.82
66.51
58.97
50.25
41.45
33.29
25.89
18.83
11.47
3.36
-5.43
-14.34
-22.54
-29.35
-34.61
-38.76
-42.71
-47.41
-53.34
-60.36
-67.75
-74.61
-80.31
-84.80
-88.72
-93.20
-99.60
-109.13
-122.35
-138.52
-155.16
-168.06
-172.19
-163.20
-139.21
-101.75
-55.55
-7.01
37.75
74.58
101.77
119.50
128.82
130.70
125.93
115.44
100.76
84.24
68.61
56.28
48.66
45.82
46.68
49.58
52.94
55.76
57.80
59.27
60.50
61.50
61.83
60.68
57.17
50.84
41.87
31.13
19.92
9.53
0.74
-6.41
-12.61
-18.86
-26.05
-34.52
-43.89
-53.29
-61.72
-68.46
-73.37
-76.91
-79.96
-83.63
-89.10
-97.45
-109.27
-124.13
-139.95
-152.96
-158.36
-151.79
-130.97
-96.83
-53.46
-6.81
37.19
74.22
102.23
120.99
131.21
133.71
129.26
118.87
104.23
87.72
72.10
59.68
51.78
48.43
48.62
50.86
53.71
56.25
58.10
59.30
60.02
60.27
59.78
57.97
54.17
47.94
39.28
28.76
17.42
6.42
-3.35
-11.59
-18.67
-25.37
-32.57
-40.83
-50.18
-60.04
-69.59
-77.95
-84.63
-89.64
-93.57
-97.45
-102.66
-110.61
-122.35
-137.89
-155.61
-171.94
-181.83
-180.12
-163.26
-130.80
-85.85
-34.25
17.26
62.92
99.23
125.07
140.98
148.15
147.76
140.94
129.04
114.01
98.22
84.16
73.70
67.71
65.89
67.07
69.83
72.96
75.76
78.02
79.67
80.55
80.24
78.24
74.14
67.91
59.85
50.51
40.40
29.93
19.36
8.93
-1.00
-10.05
-17.96
-24.78
-30.96
-37.19
-44.08
-51.85
-60.24
-68.56
-76.05
-82.21
-87.07
-91.16
-95.56
-101.61
-110.68
-123.63
-140.10
-157.91
-172.95
-179.89
-173.73
-151.69
-114.42
-66.14
-13.41
36.92
79.57
111.76
133.06
144.49
147.47
143.40
133.67
119.91
104.23
88.88
75.87
66.47
61.00
58.98
59.46
61.48
64.25
67.24
70.03
72.17
73.13
72.40
69.62
64.73
57.98
49.87
40.97
31.74
22.44
13.15
3.93
-5.04
-13.48
-21.01
-27.46
-32.99
-38.06
-43.26
-49.04
-55.41
-61.93
-67.95
-72.90
-76.62
-79.48
-82.33
-86.30
-92.66
-102.39
-115.70
-131.32
-146.12
-155.42
-154.17
-138.76
-108.56
-66.49
-18.26
29.42
70.91
102.82
124.24
135.89
139.13
135.23
125.42
111.13
94.30
77.30
62.47
51.53
45.22
43.19
44.34
47.25
50.66
53.72
56.07
57.66
58.56
58.68
57.77
55.41
51.25
45.13
37.24
28.06
18.24
8.46
-0.76
-9.13
-16.59
-23.28
-29.56
-35.77
-42.27
-49.22
-56.43
-63.49
-69.85
-75.05
-79.03
-82.17
-85.27
-89.44
-95.92
-105.71
-119.04
-134.68
-149.62
-159.28
-158.73
-144.36
-115.37
-74.42
-26.91
20.73
62.93
96.23
119.50
133.17
138.33
136.13
127.70
114.50
98.51
82.14
67.62
56.54
49.49
46.08
45.37
46.33
48.25
50.76
53.64
56.56
58.99
60.18
59.49
56.61
51.68
45.22
37.92
30.33
22.69
14.95
6.88
-1.58
-10.21
-18.54
-25.98
-32.24
-37.41
-42.06
-46.92
-52.57
-59.11
-66.09
-72.72
-78.26
-82.42
-85.49
-88.32
-92.13
-98.26
-107.77
-120.90
-136.40
-151.24
-160.86
-160.32
-145.96
-116.93
-75.87
-28.19
19.61
61.87
95.15
118.41
132.27
138.00
136.81
129.70
117.83
102.84
86.89
72.16
60.34
52.22
47.65
45.84
45.89
47.12
49.23
52.05
55.32
58.42
60.47
60.55
58.06
53.01
46.01
38.06
30.18
22.97
16.51
10.38
3.97
-3.14
-10.91
-18.77
-25.97
-31.84
-36.24
-39.62
-42.82
-46.75
-51.89
-58.11
-64.77
-70.95
-75.92
-79.52
-82.17
-84.90
-89.09
-96.06
-106.59
-120.22
-134.71
-146.13
-149.64
-141.03
-118.38
-83.09
-39.64
5.74
47.11
80.36
103.85
117.87
123.70
122.68
115.93
104.55
90.06
74.37
59.59
47.47
39.00
34.26
32.62
33.11
34.83
37.09
39.53
41.93
44.08
45.68
46.35
45.67
43.35
39.30
33.62
26.61
18.70
10.38
2.14
-5.57
-12.45
-18.41
-23.69
-28.77
-34.18
-40.33
-47.20
-54.38
-61.12
-66.68
-70.65
-73.14
-74.79
-76.62
-79.84
-85.64
-94.83
-107.30
-121.50
-134.21
-141.07
-137.74
-121.49
-92.44
-53.71
-10.59
31.19
67.06
94.44
112.72
122.48
124.71
120.46
110.87
97.43
82.01
66.68
53.19
42.72
35.68
31.92
30.89
31.96
34.46
37.77
41.26
44.34
46.45
47.17
46.27
43.74
39.76
34.58
28.51
21.73
14.41
6.64
-1.41
-9.44
-17.09
-24.09
-30.38
-36.19
-42.01
-48.33
-55.35
-62.91
-70.45
-77.28
-82.91
-87.25
-90.72
-94.16
-98.69
-105.53
-115.63
-129.07
-144.47
-158.64
-166.93
-164.54
-148.13
-117.31
-75.05
-26.88
20.87
62.90
96.08
119.52
133.76
139.89
138.97
132.01
120.29
105.57
89.96
75.48
63.64
55.17
50.04
47.80
47.82
49.54
52.48
56.13
59.86
62.89
64.42
63.90
61.10
56.21
49.70
42.15
33.98
25.45
16.63
7.59
-1.53
-10.39
-18.64
-26.07
-32.82
-39.39
-46.41
-54.33
-63.10
-72.15
-80.59
-87.59
-92.85
-96.71
-100.14
-104.56
-111.54
-122.25
-136.97
-154.32
-170.94
-181.92
-181.96
-167.15
-136.53
-92.76
-41.35
10.95
58.20
96.50
124.38
142.07
150.65
151.32
145.28
133.89
118.94
102.61
87.15
74.39
65.41
60.34
58.60
59.16
60.96
63.14
65.22
66.99
68.37
69.23
69.26
68.00
64.90
59.56
51.88
42.17
31.19
19.86
9.13
-0.38
-8.49
-15.59
-22.38
-29.66
-37.95
-47.24
-56.97
-66.20
-74.06
-80.09
-84.44
-87.85
-91.45
-96.54
-104.32
-115.62
-130.30
-146.71
-161.36
-169.39
-165.84
-147.44
-114.05
-69.07
-18.47
31.05
74.00
107.23
129.92
142.68
146.68
143.06
133.00
118.07
100.48
82.85
67.66
56.61
50.27
48.03
48.55
50.38
52.50
54.48
56.43
58.54
60.73
62.39
62.50
60.04
54.42
45.81
35.16
23.91
13.49
4.80
-2.13
-8.03
-14.17
-21.68
-31.09
-42.02
-53.29
-63.44
-71.32
-76.56
-79.73
-82.12
-85.39
-91.14
-100.54
-113.79
-129.65
-145.09
-155.62
-156.30
-143.36
-115.77
-75.90
-28.96
18.64
61.21
95.13
119.07
133.36
138.95
136.82
127.97
113.78
96.35
78.36
62.50
50.76
43.95
41.57
42.25
44.35
46.62
48.48
49.93
51.33
52.82
54.15
54.49
52.82
48.28
40.68
30.63
19.42
8.53
-0.99
-8.94
-15.99
-23.33
-32.02
-42.47
-54.13
-65.76
-75.94
-83.71
-88.91
-92.26
-95.12
-99.10
-105.79
-116.34
-130.93
-148.16
-164.72
-175.69
-175.78
-161.06
-130.55
-86.92
-35.80
15.95
62.31
99.38
125.79
141.88
148.80
147.78
139.97
126.83
110.34
93.00
77.35
65.40
58.11
55.33
56.00
58.71
62.15
65.48
68.24
70.27
71.41
71.35
69.69
66.09
60.41
52.84
43.78
33.72
23.13
12.36
1.77
-8.30
-17.54
-25.88
-33.49
-40.90
-48.68
-57.21
-66.39
-75.63
-84.17
-91.36
-97.06
-101.74
-106.34
-112.16
-120.54
-132.53
-148.29
-166.53
-184.07
-196.12
-197.39
-183.66
-153.37
-108.44
-53.91
3.45
57.01
101.77
135.02
156.16
166.08
166.35
158.91
145.91
129.71
112.79
97.45
85.48
77.78
74.28
74.13
76.18
79.32
82.76
86.08
88.97
91.07
91.79
90.45
86.47
79.72
70.69
60.30
49.67
39.66
30.54
22.04
13.56
4.56
-5.05
-14.85
-24.07
-31.93
-38.13
-42.97
-47.32
-52.27
-58.67
-66.74
-76.01
-85.52
-94.21
-101.43
-107.24
-112.53
-118.83
-127.98
-141.37
-159.04
-178.99
-197.02
-207.50
-204.88
-185.55
-149.12
-98.84
-40.66
18.38
71.91
115.50
146.99
166.21
174.23
172.81
163.97
149.96
133.13
115.89
100.47
88.54
80.96
77.65
77.73
79.98
83.23
86.64
89.77
92.42
94.31
95.04
94.04
90.75
84.90
76.63
66.57
55.65
44.91
35.15
26.75
19.53
12.92
6.20
-1.18
-9.34
-17.86
-25.94
-32.74
-37.75
-41.11
-43.62
-46.43
-50.68
-57.01
-65.31
-74.75
-84.13
-92.34
-98.85
-103.93
-108.61
-114.40
-122.93
-135.35
-151.74
-170.44
-187.89
-198.99
-198.35
-181.95
-148.72
-101.21
-45.11
12.43
64.70
107.03
137.30
155.51
162.87
160.97
151.49
136.31
117.74
98.47
81.22
68.07
60.05
56.97
57.65
60.65
64.66
68.92
73.07
76.96
80.30
82.53
82.90
80.72
75.69
68.04
58.62
48.56
38.97
30.52
23.23
16.55
9.64
1.85
-6.94
-16.24
-25.07
-32.42
-37.70
-41.06
-43.39
-46.01
-50.13
-56.33
-64.34
-73.21
-81.68
-88.74
-94.13
-98.39
-102.80
-109.04
-118.64
-132.36
-149.51
-167.48
-181.82
-187.13
-178.65
-153.96
-114.03
-63.23
-8.10
44.53
89.28
123.15
145.44
156.92
159.04
153.38
141.55
125.43
107.30
89.58
74.51
63.59
57.33
55.23
56.21
59.01
62.61
66.37
69.99
73.24
75.81
77.19
76.77
74.02
68.71
61.03
51.69
41.72
32.16
23.75
16.70
10.60
4.70
-1.77
-9.19
-17.37
-25.62
-33.00
-38.77
-42.74
-45.38
-47.69
-50.81
-55.63
-62.43
-70.75
-79.66
-88.08
-95.22
-100.96
-105.78
-110.74
-117.21
-126.50
-139.49
-155.88
-173.76
-189.28
-197.31
-192.73
-172.22
-135.65
-86.54
-31.11
23.52
71.29
108.46
133.88
148.21
153.00
149.97
140.76
127.20
111.37
95.57
81.92
71.88
65.95
63.68
64.00
65.81
68.25
70.92
73.72
76.54
79.10
80.78
80.84
78.64
73.90
66.84
58.14
48.72
39.51
31.17
23.93
17.65
11.90
6.15
-0.04
-6.80
-13.93
-20.89
-26.99
-31.68
-34.85
-36.99
-39.09
-42.30
-47.42
-54.58
-63.12
-71.87
-79.69
-85.90
-90.57
-94.48
-98.87
-105.19
-114.71
-127.99
-144.30
-161.15
-174.40
-179.01
-170.56
-146.83
-108.90
-61.04
-9.51
39.22
80.17
110.71
130.36
140.15
141.66
136.52
126.30
112.60
97.28
82.32
69.53
60.18
54.73
52.73
53.18
54.93
57.12
59.36
61.65
64.06
66.42
68.11
68.30
66.19
61.49
54.53
46.25
37.80
30.13
23.60
17.95
12.41
6.18
-1.15
-9.36
-17.62
-24.89
-30.38
-33.92
-36.13
-38.08
-40.95
-45.46
-51.59
-58.72
-65.83
-72.02
-76.81
-80.33
-83.25
-86.67
-91.93
-100.21
-112.02
-126.51
-141.11
-151.72
-153.60
-142.97
-118.42
-81.72
-37.43
8.41
50.10
83.59
107.08
120.62
125.30
122.61
114.03
101.11
85.59
69.40
54.50
42.54
34.51
30.60
30.27
32.47
36.01
39.83
43.24
45.92
47.76
48.71
48.61
47.20
44.20
39.55
33.40
26.10
18.14
9.90
1.70
-6.24
-13.73
-20.64
-26.97
-32.94
-38.91
-45.24
-52.01
-58.94
-65.41
-70.79
-74.75
-77.49
-79.84
-82.91
-87.96
-95.98
-107.36
-121.46
-136.24
-148.24
-153.19
-147.15
-127.90
-95.98
-54.83
-9.80
33.34
70.01
97.62
115.57
124.60
125.91
120.81
110.59
96.79
81.25
66.02
52.95
43.32
37.66
35.70
36.63
39.38
42.96
46.54
49.54
51.61
52.54
52.15
50.30
46.88
41.78
35.06
26.96
17.86
8.27
-1.27
-10.33
-18.63
-26.06
-32.79
-39.20
-45.71
-52.70
-60.24
-68.10
-75.75
-82.62
-88.31
-92.86
-96.80
-101.08
-106.97
-115.76
-128.23
-144.04
-161.15
-175.70
-182.69
-177.33
-156.73
-121.14
-74.09
-21.51
30.02
74.97
109.92
133.74
146.95
150.93
147.34
137.92
124.52
109.20
94.09
81.09
71.52
65.88
63.87
64.67
67.25
70.76
74.60
78.30
81.39
83.25
83.18
80.64
75.47
68.08
59.27
50.03
41.12
32.82
24.92
16.96
8.53
-0.39
-9.36
-17.69
-24.75
-30.31
-34.73
-38.84
-43.61
-49.68
-57.07
-65.15
-72.95
-79.57
-84.74
-88.90
-93.22
-99.27
-108.58
-122.01
-139.11
-157.56
-173.16
-180.57
-174.77
-152.78
-114.98
-65.28
-10.07
43.57
89.82
125.16
148.52
160.58
162.85
157.15
145.35
129.54
112.05
95.27
81.25
71.30
65.76
64.07
65.11
67.70
70.93
74.31
77.63
80.76
83.31
84.65
83.94
80.53
74.18
65.32
54.96
44.44
34.96
27.17
20.98
15.65
10.22
3.96
-3.21
-10.66
-17.42
-22.66
-26.12
-28.30
-30.27
-33.13
-37.63
-43.81
-51.10
-58.55
-65.27
-70.71
-74.88
-78.31
-82.05
-87.38
-95.52
-107.08
-121.33
-135.84
-146.57
-148.81
-138.68
-114.63
-78.27
-34.10
11.82
53.68
87.33
110.90
124.48
129.23
126.59
117.95
104.72
88.64
71.80
56.44
44.45
36.89
33.79
34.25
36.96
40.66
44.56
48.35
51.96
55.24
57.73
58.71
57.41
53.50
47.23
39.48
31.42
24.02
17.72
12.30
7.12
1.53
-4.79
-11.62
-18.29
-23.99
-28.23
-31.01
-32.90
-34.79
-37.50
-41.50
-46.69
-52.52
-58.25
-63.23
-67.24
-70.52
-73.77
-77.99
-84.19
-93.04
-104.28
-116.39
-126.44
-130.66
-125.46
-108.74
-80.78
-44.50
-4.69
33.41
65.42
88.83
103.02
108.81
107.62
101.04
90.49
77.46
63.55
50.45
39.67
32.24
28.42
27.72
29.22
31.86
34.87
37.85
40.74
43.52
45.99
47.63
47.73
45.64
41.09
34.43
26.58
18.73
11.89
6.52
2.37
-1.34
-5.49
-10.65
-16.73
-23.02
-28.55
-32.57
-34.86
-35.95
-36.82
-38.56
-41.88
-46.83
-52.85
-59.05
-64.59
-69.00
-72.40
-75.40
-78.93
-84.07
-91.65
-101.89
-113.87
-125.31
-132.74
-132.35
-121.21
-98.47
-65.90
-27.55
11.44
46.32
73.84
92.67
103.01
105.95
102.85
95.08
84.06
71.35
58.63
47.45
38.96
33.68
31.46
31.65
33.38
35.90
38.70
41.56
44.39
47.02
49.06
49.86
48.72
45.18
39.32
31.79
23.68
16.12
9.85
4.96
0.90
-3.20
-8.06
-13.90
-20.28
-26.34
-31.24
-34.58
-36.68
-38.37
-40.69
-44.38
-49.53
-55.59
-61.69
-66.94
-70.95
-73.90
-76.56
-80.03
-85.47
-93.69
-104.78
-117.67
-130.01
-138.45
-139.33
-129.83
-108.93
-77.98
-40.44
-1.05
35.52
65.69
87.55
100.79
106.22
105.14
98.93
88.98
76.74
63.82
51.85
42.23
35.85
32.84
32.65
34.39
37.14
40.28
43.52
46.70
49.56
51.67
52.42
51.30
48.11
43.07
36.75
29.86
23.02
16.50
10.31
4.24
-1.92
-8.18
-14.35
-20.09
-25.10
-29.32
-33.00
-36.62
-40.66
-45.37
-50.62
-55.97
-60.90
-65.06
-68.50
-71.70
-75.54
-81.10
-89.30
-100.46
-113.74
-126.92
-136.50
-138.51
-129.73
-108.83
-77.08
-38.18
2.88
41.10
72.73
95.84
110.15
116.46
115.95
109.91
99.62
86.54
72.36
58.91
47.81
40.14
36.28
35.84
37.99
41.71
46.14
50.58
54.48
57.38
58.81
58.43
56.08
51.92
46.38
40.02
33.30
26.48
19.53
12.31
4.71
-3.17
-10.99
-18.36
-24.93
-30.72
-36.02
-41.37
-47.17
-53.54
-60.16
-66.46
-71.86
-76.18
-79.74
-83.37
-88.27
-95.67
-106.34
-120.05
-135.09
-148.23
-155.21
-151.91
-135.68
-106.46
-66.96
-22.02
22.78
62.60
94.22
116.23
128.71
132.60
129.24
120.26
107.44
92.75
78.18
65.45
55.82
49.88
47.58
48.32
51.20
55.20
59.46
63.29
66.21
67.88
68.01
66.39
62.93
57.74
51.17
43.64
35.57
27.19
18.58
9.78
0.90
-7.80
-15.98
-23.42
-30.13
-36.41
-42.70
-49.32
-56.29
-63.35
-70.03
-75.95
-81.00
-85.44
-89.92
-95.38
-102.97
-113.69
-127.87
-144.52
-160.90
-172.71
-175.04
-163.88
-137.66
-98.04
-49.63
1.36
48.86
88.38
117.69
136.48
145.70
146.74
141.11
130.40
116.44
101.32
87.15
75.68
67.92
63.98
63.28
64.88
67.85
71.50
75.30
78.82
81.54
82.87
82.27
79.41
74.29
67.28
59.02
50.22
41.38
32.70
24.06
15.22
6.12
-2.98
-11.53
-18.98
-25.10
-30.23
-35.18
-40.85
-47.71
-55.60
-63.73
-71.15
-77.21
-81.94
-86.04
-90.74
-97.39
-107.16
-120.52
-136.70
-153.30
-166.31
-170.85
-162.57
-139.27
-102.01
-55.10
-4.86
42.30
81.66
110.98
130.20
140.50
143.26
139.63
130.66
117.76
102.89
88.36
76.24
67.80
63.26
61.93
62.75
64.79
67.48
70.53
73.71
76.55
78.38
78.44
76.17
71.44
64.60
56.35
47.44
38.45
29.62
20.91
12.20
3.48
-4.97
-12.71
-19.34
-24.73
-29.17
-33.26
-37.66
-42.77
-48.59
-54.73
-60.63
-65.85
-70.27
-74.19
-78.33
-83.74
-91.61
-102.77
-117.04
-132.62
-145.96
-152.38
-147.52
-128.92
-97.16
-55.93
-10.91
31.94
68.07
95.09
112.61
121.43
122.73
117.70
107.54
93.78
78.38
63.56
51.36
43.15
39.38
39.49
42.29
46.40
50.64
54.26
56.99
58.78
59.63
59.35
57.59
53.97
48.29
40.71
31.80
22.40
13.37
5.39
-1.29
-6.89
-12.01
-17.36
-23.45
-30.36
-37.65
-44.60
-50.43
-54.72
-57.53
-59.45
-61.34
-64.21
-69.00
-76.46
-86.81
-99.31
-111.94
-121.43
-123.90
-116.09
-96.66
-66.87
-30.39
7.78
42.80
71.27
91.57
103.69
108.44
106.89
100.15
89.44
76.26
62.45
49.87
40.08
34.00
31.74
32.65
35.68
39.63
43.48
46.50
48.36
48.96
48.35
46.59
43.72
39.66
34.36
27.84
20.31
12.20
4.05
-3.58
-10.33
-16.09
-21.03
-25.56
-30.14
-35.14
-40.69
-46.61
-52.52
-57.91
-62.41
-65.93
-68.79
-71.60
-75.24
-80.65
-88.63
-99.36
-111.93
-124.05
-132.26
-132.69
-122.34
-100.31
-68.34
-30.48
8.20
43.03
70.83
90.27
101.52
105.51
103.44
96.56
86.20
73.85
61.20
49.87
41.15
35.73
33.65
34.30
36.78
40.12
43.55
46.55
48.81
50.10
50.19
48.89
46.07
41.78
36.20
29.65
22.39
14.68
6.75
-1.09
-8.48
-15.10
-20.77
-25.61
-29.96
-34.26
-38.86
-43.84
-49.00
-53.97
-58.38
-62.03
-65.07
-67.94
-71.37
-76.27
-83.52
-93.64
-106.35
-120.06
-131.82
-137.75
-134.15
-118.77
-91.77
-55.96
-16.00
22.90
56.44
81.99
98.75
107.21
108.56
104.19
95.56
84.19
71.73
59.79
49.76
42.57
38.56
37.50
38.76
41.47
44.80
48.03
50.65
52.33
52.89
52.18
50.10
46.60
41.74
35.72
28.84
21.44
13.89
6.45
-0.68
-7.33
-13.41
-18.87
-23.80
-28.37
-32.88
-37.58
-42.55
-47.66
-52.60
-57.01
-60.73
-63.87
-66.91
-70.63
-75.91
-83.61
-94.10
-106.88
-120.15
-130.83
-135.07
-129.44
-112.09
-83.72
-47.51
-8.33
28.74
59.74
82.55
96.78
103.20
103.00
97.38
87.51
74.77
60.83
47.64
37.01
30.19
27.59
28.59
31.93
36.13
40.02
42.98
44.97
46.24
46.97
47.01
45.88
42.95
37.84
30.66
22.03
12.91
4.31
-3.09
-9.05
-13.85
-18.06
-22.34
-27.19
-32.76
-38.78
-44.72
-50.01
-54.26
-57.48
-60.11
-62.86
-66.62
-72.28
-80.50
-91.37
-103.98
-116.11
-124.40
-125.09
-115.29
-94.09
-63.20
-26.48
11.15
45.16
72.45
91.61
102.64
106.26
103.48
95.45
83.58
69.66
55.75
43.84
35.49
31.39
31.31
34.19
38.62
43.22
47.06
49.69
51.13
51.51
50.93
49.27
46.33
41.88
35.87
28.50
20.17
11.44
2.91
-4.91
-11.69
-17.33
-22.08
-26.41
-30.92
-36.07
-42.03
-48.52
-54.93
-60.60
-65.09
-68.44
-71.20
-74.30
-78.83
-85.83
-95.97
-109.15
-124.04
-137.87
-146.76
-146.58
-134.34
-109.36
-73.74
-31.91
10.72
49.22
80.23
102.26
115.28
120.12
117.95
110.20
98.59
85.13
71.97
60.97
53.37
49.53
49.05
51.01
54.37
58.28
62.15
65.68
68.54
70.34
70.52
68.57
64.25
57.79
49.89
41.51
33.52
26.37
20.02
14.03
7.89
1.33
-5.51
-12.14
-17.94
-22.50
-25.84
-28.44
-31.13
-34.73
-39.75
-46.17
-53.45
-60.75
-67.26
-72.62
-77.07
-81.48
-87.14
-95.38
-107.03
-121.74
-137.58
-151.01
-157.62
-153.30
-135.70
-105.15
-64.81
-19.80
24.24
62.62
92.43
112.64
123.65
126.56
122.71
113.60
100.92
86.67
72.93
61.60
53.97
50.44
50.48
52.96
56.62
60.43
63.85
66.73
69.05
70.67
71.15
69.92
66.48
60.71
53.03
44.26
35.44
27.42
20.63
14.95
9.84
4.68
-0.93
-6.97
-13.01
-18.40
-22.64
-25.64
-27.90
-30.25
-33.57
-38.35
-44.50
-51.39
-58.16
-64.12
-69.09
-73.45
-78.06
-83.99
-92.29
-103.55
-117.42
-132.17
-144.61
-150.59
-146.13
-128.89
-99.19
-60.25
-17.25
24.18
59.57
86.37
103.98
113.06
114.74
110.25
100.83
87.92
73.38
59.28
47.55
39.59
35.88
35.99
38.88
43.30
48.16
52.71
56.58
59.47
61.08
61.07
59.11
55.15
49.47
42.68
35.43
28.27
21.36
14.58
7.68
0.54
-6.69
-13.58
-19.61
-24.53
-28.43
-31.87
-35.52
-39.91
-45.19
-51.05
-56.86
-62.03
-66.28
-69.82
-73.39
-78.08
-85.09
-95.18
-108.11
-122.20
-134.32
-140.42
-136.71
-120.93
-93.27
-56.54
-15.40
24.97
60.20
87.53
106.00
115.91
118.31
114.45
105.68
93.47
79.55
65.76
53.83
45.09
40.15
38.83
40.35
43.62
47.64
51.68
55.34
58.35
60.44
61.21
60.17
57.00
51.74
44.89
37.28
29.75
22.85
16.62
10.68
4.48
-2.31
-9.60
-16.84
-23.31
-28.46
-32.26
-35.26
-38.36
-42.43
-47.89
-54.55
-61.73
-68.57
-74.42
-79.18
-83.31
-87.76
-93.75
-102.45
-114.44
-129.23
-144.80
-157.60
-163.27
-157.78
-138.94
-107.27
-66.13
-20.70
23.40
61.66
91.37
111.69
123.07
126.55
123.39
115.01
103.10
89.61
76.59
65.73
58.08
53.87
52.57
53.30
55.19
57.71
60.58
63.76
67.07
70.11
72.17
72.43
70.27
65.50
58.56
50.33
41.91
34.16
27.41
21.40
15.49
9.07
1.89
-5.72
-13.10
-19.44
-24.33
-27.85
-30.63
-33.61
-37.62
-43.10
-49.91
-57.43
-64.80
-71.31
-76.67
-81.17
-85.65
-91.32
-99.44
-110.81
-125.22
-140.91
-154.54
-161.72
-158.21
-141.41
-111.41
-71.21
-25.92
18.77
58.09
89.11
110.76
123.35
127.85
125.43
117.41
105.35
91.10
76.66
63.84
53.91
47.44
44.31
43.93
45.56
48.47
52.05
55.79
59.19
61.74
62.93
62.38
59.89
55.57
49.78
42.98
35.59
27.90
20.00
11.91
3.71
-4.34
-11.88
-18.57
-24.32
-29.39
-34.25
-39.34
-44.86
-50.60
-56.10
-60.93
-64.89
-68.13
-71.15
-74.69
-79.65
-86.92
-97.01
-109.50
-122.54
-132.83
-136.22
-129.07
-109.67
-79.06
-40.95
-0.48
37.35
68.93
92.55
107.93
115.58
116.21
110.62
99.96
85.92
70.68
56.45
44.93
37.02
32.68
31.26
31.87
33.69
36.08
38.69
41.32
43.76
45.73
46.69
45.97
42.95
37.28
29.26
19.74
10.01
1.26
-5.91
-11.73
-17.12
-23.27
-31.01
-40.36
-50.53
-60.18
-68.06
-73.51
-76.71
-78.64
-80.81
-84.86
-92.06
-102.88
-116.43
-130.29
-140.70
-143.45
-135.11
-114.32
-82.39
-43.06
-1.39
37.74
70.75
95.80
112.53
121.40
123.16
118.66
109.02
95.77
80.91
66.60
54.71
46.36
41.77
40.32
40.94
42.59
44.56
46.60
48.71
50.87
52.75
53.60
52.50
48.63
41.80
32.53
22.00
11.61
2.37
-5.40
-12.19
-18.94
-26.59
-35.50
-45.35
-55.23
-64.08
-71.12
-76.25
-80.01
-83.48
-88.02
-94.94
-105.14
-118.61
-133.93
-148.11
-156.91
-155.95
-142.08
-114.75
-76.36
-31.69
13.52
54.22
87.09
110.89
125.80
132.74
132.74
126.84
116.25
102.59
87.86
74.20
63.34
56.24
52.90
52.56
54.05
56.29
58.51
60.39
61.85
62.84
63.14
62.27
59.69
54.93
47.88
38.88
28.69
18.28
8.63
0.32
-6.64
-12.81
-19.14
-26.53
-35.36
-45.28
-55.31
-64.20
-71.00
-75.51
-78.34
-80.74
-84.23
-90.20
-99.61
-112.57
-127.92
-142.92
-153.48
-155.02
-143.96
-119.08
-82.31
-38.30
7.00
48.13
81.38
105.24
119.83
126.10
125.09
117.85
105.67
90.31
74.03
59.15
47.50
40.00
36.53
36.19
37.83
40.43
43.42
46.61
49.92
53.08
55.48
56.24
54.52
49.84
42.40
33.01
22.87
13.20
4.71
-2.55
-9.18
-16.05
-23.91
-32.93
-42.66
-52.15
-60.37
-66.59
-70.71
-73.30
-75.47
-78.65
-84.27
-93.29
-105.70
-120.03
-133.14
-140.77
-138.63
-123.95
-96.56
-59.24
-16.89
24.92
61.56
90.21
109.97
121.17
124.68
121.44
112.46
99.13
83.38
67.50
53.75
43.75
38.16
36.56
37.83
40.59
43.74
46.61
49.02
51.03
52.62
53.50
53.07
50.57
45.44
37.64
27.77
16.96
6.52
-2.56
-9.97
-16.19
-22.20
-29.01
-37.16
-46.47
-56.09
-64.89
-71.94
-76.88
-80.11
-82.61
-85.75
-90.94
-99.36
-111.44
-126.42
-141.88
-153.91
-157.80
-149.53
-127.19
-91.99
-48.07
-1.34
42.39
78.81
105.86
123.38
132.25
133.61
128.53
118.11
103.92
88.01
72.74
60.24
51.85
47.84
47.52
49.58
52.65
55.73
58.32
60.35
61.94
63.06
63.40
62.30
59.10
53.31
44.97
34.68
23.52
12.67
3.06
-4.95
-11.66
-17.83
-24.33
-31.79
-40.28
-49.30
-58.01
-65.59
-71.49
-75.68
-78.68
-81.39
-85.04
-90.95
-100.20
-113.15
-128.77
-144.29
-155.38
-157.24
-146.10
-120.72
-83.11
-37.99
8.63
51.21
86.00
111.36
127.31
134.69
134.51
127.85
115.99
100.66
84.09
68.60
56.14
47.91
44.05
43.83
46.02
49.34
52.78
55.78
58.14
59.81
60.65
60.31
58.26
54.00
47.31
38.45
28.17
17.50
7.51
-1.13
-8.25
-14.30
-20.04
-26.24
-33.38
-41.42
-49.83
-57.78
-64.50
-69.52
-72.91
-75.33
-77.82
-81.67
-88.14
-98.05
-111.29
-126.27
-139.74
-147.27
-144.45
-128.41
-99.10
-59.61
-15.32
27.80
64.81
92.90
111.36
120.84
122.47
117.38
106.80
92.30
75.99
60.24
47.14
37.93
32.81
31.07
31.57
33.29
35.64
38.44
41.64
44.95
47.66
48.74
47.21
42.56
35.13
25.94
16.42
7.72
0.35
-6.07
-12.45
-19.74
-28.43
-38.20
-48.17
-57.22
-64.48
-69.77
-73.59
-77.01
-81.40
-88.06
-97.77
-110.22
-123.58
-134.49
-138.73
-132.46
-113.68
-83.19
-44.53
-2.92
36.36
69.34
94.03
110.17
118.41
119.66
114.80
104.81
91.14
75.78
60.99
48.79
40.45
36.20
35.28
36.41
38.34
40.28
42.08
43.95
46.02
47.98
48.99
47.93
43.89
36.68
26.97
16.10
5.61
-3.44
-10.78
-17.02
-23.29
-30.65
-39.57
-49.71
-60.03
-69.22
-76.27
-80.90
-83.71
-86.01
-89.43
-95.56
-105.45
-119.09
-134.95
-149.78
-159.10
-158.22
-143.91
-115.63
-76.06
-30.42
15.18
55.47
87.21
109.39
122.55
127.85
126.45
119.40
107.93
93.70
78.82
65.44
55.24
49.07
46.79
47.51
50.02
53.19
56.22
58.73
60.59
61.75
62.04
61.13
58.61
54.16
47.62
39.19
29.43
19.12
9.18
0.34
-7.13
-13.44
-19.24
-25.34
-32.33
-40.31
-48.84
-57.18
-64.56
-70.54
-75.14
-78.82
-82.34
-86.64
-92.83
-101.90
-114.30
-129.28
-144.35
-155.41
-157.67
-147.23
-122.57
-85.45
-40.47
6.32
49.23
84.31
109.81
125.74
133.04
132.86
126.35
114.82
100.04
84.14
69.35
57.45
49.44
45.37
44.58
46.09
48.97
52.50
56.22
59.67
62.36
63.73
63.25
60.63
55.92
49.56
42.15
34.29
26.30
18.28
10.14
1.83
-6.48
-14.40
-21.47
-27.43
-32.38
-36.78
-41.26
-46.31
-52.03
-58.11
-64.00
-69.16
-73.37
-76.82
-80.15
-84.33
-90.51
-99.72
-112.30
-127.27
-141.83
-151.69
-152.04
-139.17
-112.05
-72.98
-27.04
19.48
60.93
93.67
116.32
129.23
133.52
130.42
121.08
106.89
89.74
71.94
55.91
43.57
35.91
32.86
33.53
36.59
40.80
45.23
49.35
52.88
55.60
57.23
57.36
55.64
51.82
45.92
38.21
29.19
19.48
9.74
0.57
-7.64
-14.78
-21.11
-27.15
-33.52
-40.67
-48.59
-56.79
-64.45
-70.73
-75.24
-78.16
-80.31
-82.88
-87.19
-94.41
-105.20
-119.24
-134.70
-148.15
-154.97
-150.67
-132.40
-100.24
-57.48
-9.73
36.77
76.87
107.54
127.90
138.57
140.78
135.87
125.17
110.23
93.01
75.69
60.38
48.67
41.31
38.19
38.51
41.16
45.01
49.15
52.95
56.00
57.98
58.62
57.64
54.80
49.99
43.26
34.89
25.35
15.20
5.10
-4.44
-13.06
-20.69
-27.53
-34.07
-40.86
-48.31
-56.48
-64.97
-73.07
-79.96
-85.15
-88.66
-91.10
-93.56
-97.42
-104.06
-114.46
-128.65
-145.05
-160.27
-169.49
-167.75
-151.58
-120.43
-77.15
-27.26
22.71
67.02
101.97
126.15
139.97
144.74
142.07
133.49
120.56
104.93
88.47
73.05
60.35
51.53
46.93
46.09
47.94
51.20
54.72
57.77
60.02
61.45
62.00
61.45
59.38
55.29
48.92
40.38
30.28
19.59
9.35
0.32
-7.27
-13.85
-20.22
-27.25
-35.43
-44.64
-54.13
-62.87
-69.97
-75.03
-78.35
-80.77
-83.46
-87.69
-94.59
-104.89
-118.54
-134.21
-148.94
-158.44
-158.07
-144.39
-116.60
-77.09
-30.92
15.73
57.37
90.42
113.50
126.80
131.30
128.13
118.50
104.00
86.72
69.24
54.05
43.02
36.89
35.23
36.80
40.15
44.10
48.02
51.72
55.18
58.11
59.88
59.54
56.29
49.84
40.65
29.90
19.08
9.39
1.31
-5.55
-12.20
-19.66
-28.47
-38.31
-48.20
-56.91
-63.55
-67.97
-70.75
-73.02
-76.16
-81.50
-89.97
-101.61
-115.13
-127.61
-134.93
-132.78
-118.24
-90.98
-53.65
-11.17
30.84
67.65
96.39
116.10
127.14
130.34
126.64
117.05
102.97
86.31
69.46
54.75
43.97
37.95
36.39
38.12
41.60
45.38
48.51
50.68
52.03
52.79
52.96
52.15
49.71
45.01
37.81
28.46
17.95
7.49
-1.85
-9.57
-15.94
-21.78
-28.10
-35.66
-44.54
-54.11
-63.29
-70.97
-76.49
-79.91
-82.03
-84.12
-87.73
-94.28
-104.66
-118.72
-134.72
-149.24
-157.67
-155.38
-139.33
-109.34
-68.40
-21.90
24.04
64.25
95.58
117.02
129.10
132.99
130.02
121.49
108.95
94.26
79.51
66.72
57.31
51.92
50.28
51.49
54.43
58.17
62.06
65.78
69.01
71.27
71.88
70.15
65.76
58.97
50.60
41.79
33.50
26.16
19.62
13.26
6.50
-0.92
-8.71
-16.20
-22.63
-27.55
-31.07
-33.91
-37.00
-41.19
-46.75
-53.34
-60.16
-66.38
-71.54
-75.82
-79.96
-85.08
-92.41
-102.88
-116.61
-132.38
-147.36
-157.32
-157.64
-144.85
-118.02
-79.44
-34.10
11.83
52.83
85.29
107.86
120.91
125.64
123.39
115.44
103.25
88.66
73.83
60.89
51.35
45.81
43.90
44.58
46.69
49.38
52.24
55.20
58.23
61.05
63.06
63.44
61.48
56.92
50.08
41.84
33.33
25.53
18.89
13.25
7.96
2.32
-4.06
-10.98
-17.70
-23.33
-27.28
-29.60
-31.02
-32.64
-35.39
-39.69
-45.26
-51.30
-56.91
-61.45
-64.81
-67.39
-70.02
-73.75
-79.69
-88.67
-100.68
-114.35
-126.66
-133.48
-130.69
-115.66
-88.46
-52.04
-11.40
28.01
61.75
87.27
103.87
112.02
112.71
107.07
96.42
82.47
67.28
52.97
41.34
33.38
29.23
28.34
29.81
32.78
36.62
40.89
45.17
49.01
51.81
52.96
51.98
48.73
43.46
36.81
29.59
22.55
16.15
10.39
4.89
-0.90
-7.36
-14.43
-21.64
-28.24
-33.65
-37.76
-41.03
-44.28
-48.23
-53.14
-58.70
-64.25
-69.15
-73.18
-76.63
-80.22
-84.92
-91.68
-101.19
-113.47
-127.41
-140.51
-149.01
-148.82
-136.80
-112.12
-76.78
-35.20
7.10
45.12
75.52
96.95
109.60
114.49
112.82
105.86
94.95
81.71
67.96
55.50
45.78
39.62
37.07
37.51
39.98
43.48
47.26
50.95
54.38
57.42
59.72
60.68
59.61
56.06
50.09
42.36
33.97
26.02
19.22
13.67
8.85
3.96
-1.73
-8.48
-15.94
-23.29
-29.53
-34.01
-36.77
-38.51
-40.43
-43.63
-48.73
-55.52
-63.14
-70.44
-76.54
-81.18
-84.80
-88.45
-93.49
-101.24
-112.53
-127.13
-143.27
-157.51
-165.29
-162.16
-145.32
-114.77
-73.61
-27.20
18.49
58.44
89.66
111.23
123.70
128.24
126.08
118.51
106.95
93.19
79.21
66.88
57.48
51.53
48.81
48.59
50.08
52.62
55.85
59.53
63.42
67.05
69.69
70.52
68.81
64.28
57.23
48.58
39.56
31.27
24.31
18.56
13.31
7.69
1.08
-6.48
-14.33
-21.45
-26.96
-30.56
-32.71
-34.46
-37.02
-41.24
-47.27
-54.56
-62.13
-69.01
-74.60
-78.89
-82.44
-86.24
-91.50
-99.43
-110.76
-125.15
-140.71
-153.82
-159.87
-154.61
-135.66
-103.69
-62.37
-17.28
25.82
62.48
90.34
108.95
118.97
121.48
117.57
108.43
95.53
80.76
66.19
53.72
44.73
39.77
38.61
40.40
43.95
48.16
52.18
55.51
57.99
59.55
60.03
59.16
56.57
52.03
45.54
37.45
28.37
19.02
10.04
1.87
-5.37
-11.91
-18.22
-24.87
-32.25
-40.39
-48.78
-56.65
-63.21
-68.07
-71.42
-73.99
-76.81
-81.03
-87.66
-97.39
-110.24
-125.03
-139.15
-148.67
-149.29
-137.77
-113.19
-77.60
-35.49
7.62
46.85
78.97
102.68
118.05
125.69
126.27
120.47
109.37
94.69
78.81
64.23
52.96
46.00
43.11
43.24
45.05
47.45
49.90
52.36
54.90
57.37
59.17
59.37
57.06
51.72
43.45
33.08
21.82
10.95
1.37
-6.70
-13.74
-20.72
-28.63
-38.01
-48.68
-59.68
-69.76
-77.83
-83.49
-87.21
-90.17
-93.93
-100.05
-109.71
-123.26
-139.71
-156.43
-169.26
-173.32
-164.49
-140.87
-103.79
-57.53
-8.10
38.52
77.88
107.70
127.61
138.36
141.07
136.95
127.36
113.99
98.97
84.52
72.64
64.57
60.63
60.22
62.20
65.32
68.56
71.35
73.50
74.99
75.74
75.41
73.46
69.29
62.54
53.25
41.99
29.78
17.76
6.92
-2.29
-10.04
-17.08
-24.33
-32.52
-41.73
-51.38
-60.48
-68.05
-73.64
-77.49
-80.51
-83.92
-89.02
-96.90
-108.29
-123.21
-140.44
-157.12
-168.87
-170.74
-158.79
-131.71
-91.61
-43.52
6.14
51.57
88.90
116.53
134.56
143.79
145.16
139.65
128.65
114.16
98.67
84.63
73.85
67.12
64.26
64.42
66.59
69.92
73.77
77.69
81.21
83.82
84.85
83.73
80.14
74.16
66.32
57.42
48.26
39.38
30.90
22.60
14.17
5.50
-3.20
-11.42
-18.66
-24.71
-29.80
-34.58
-39.73
-45.66
-52.27
-58.97
-64.98
-69.83
-73.58
-76.96
-81.22
-87.78
-97.78
-111.49
-127.84
-144.07
-156.02
-159.01
-149.20
-125.10
-88.27
-43.10
4.40
48.38
84.53
110.72
126.71
133.40
132.10
124.25
111.48
95.79
79.51
64.90
53.74
46.94
44.45
45.49
48.95
53.69
58.80
63.61
67.59
70.28
71.22
70.09
66.78
61.46
54.57
46.67
38.34
29.96
21.71
13.66
5.78
-1.85
-9.06
-15.62
-21.35
-26.31
-30.80
-35.26
-40.11
-45.55
-51.44
-57.35
-62.76
-67.34
-71.23
-75.11
-80.09
-87.39
-97.92
-111.57
-126.80
-140.49
-148.45
-146.51
-131.91
-104.43
-66.72
-23.58
19.37
57.26
87.00
107.44
118.90
122.45
119.30
110.74
98.25
83.64
69.02
56.40
47.30
42.38
41.37
43.27
46.84
50.94
54.78
58.03
60.59
62.43
63.35
62.95
60.76
56.50
50.26
42.55
34.26
26.28
19.25
13.36
8.38
3.74
-1.09
-6.47
-12.34
-18.31
-23.74
-28.02
-30.86
-32.44
-33.49
-35.06
-38.10
-43.10
-49.82
-57.46
-64.91
-71.27
-76.20
-80.03
-83.60
-88.11
-94.78
-104.46
-117.14
-131.46
-144.53
-152.22
-150.34
-135.93
-108.57
-70.81
-27.53
15.48
53.18
82.34
101.89
112.36
115.08
111.58
103.30
91.68
78.35
65.13
53.79
45.65
41.28
40.39
42.04
45.07
48.50
51.78
54.78
57.53
59.95
61.72
62.30
61.16
58.01
52.95
46.40
39.02
31.50
24.38
18.01
12.46
7.58
3.05
-1.47
-6.22
-11.20
-16.13
-20.55
-24.03
-26.39
-27.93
-29.31
-31.41
-34.97
-40.26
-46.99
-54.38
-61.46
-67.41
-71.92
-75.23
-78.10
-81.63
-86.97
-94.97
-105.83
-118.53
-130.75
-139.00
-139.43
-129.09
-107.07
-75.04
-36.90
2.34
38.00
66.87
87.50
99.91
104.88
103.45
96.69
85.92
72.72
59.00
46.60
36.94
30.68
27.73
27.43
28.89
31.37
34.41
37.80
41.42
45.02
48.03
49.66
49.12
45.97
40.36
33.10
25.37
18.27
12.47
7.89
3.94
-0.21
-5.15
-10.92
-17.06
-22.74
-27.24
-30.20
-31.89
-33.03
-34.53
-37.09
-40.92
-45.69
-50.79
-55.54
-59.49
-62.65
-65.42
-68.54
-72.94
-79.53
-88.83
-100.51
-112.92
-123.04
-127.11
-121.76
-105.25
-78.37
-44.32
-7.79
26.53
55.15
76.38
90.03
96.78
97.48
92.98
84.20
72.42
59.32
46.73
36.22
28.72
24.45
23.06
23.92
26.36
29.83
33.81
37.81
41.24
43.54
44.24
43.09
40.13
35.72
30.32
24.44
18.37
12.17
5.72
-1.10
-8.23
-15.31
-21.81
-27.26
-31.54
-34.98
-38.27
-42.14
-46.97
-52.67
-58.67
-64.26
-68.94
-72.69
-76.00
-79.72
-84.85
-92.32
-102.60
-115.30
-128.77
-140.06
-145.36
-141.08
-125.08
-97.61
-61.48
-21.24
18.14
52.60
79.73
98.74
109.89
113.96
111.85
104.65
93.76
80.90
67.95
56.62
48.04
42.64
40.26
40.32
42.21
45.37
49.36
53.74
57.95
61.31
63.12
62.80
60.12
55.28
48.79
41.39
33.75
26.33
19.22
12.25
5.16
-2.21
-9.69
-16.87
-23.29
-28.69
-33.26
-37.59
-42.40
-48.16
-54.85
-61.97
-68.78
-74.68
-79.52
-83.70
-88.13
-93.99
-102.45
-114.21
-128.91
-144.66
-158.00
-164.46
-159.88
-141.85
-110.73
-69.79
-24.23
20.32
59.32
90.07
111.72
124.63
129.76
128.26
121.44
110.86
98.39
85.92
75.05
66.79
61.44
58.73
58.09
58.96
60.95
63.84
67.36
71.05
74.19
75.88
75.34
72.18
66.60
59.31
51.26
43.23
35.58
28.16
20.54
12.32
3.46
-5.60
-14.18
-21.58
-27.46
-32.00
-35.82
-39.77
-44.49
-50.22
-56.71
-63.40
-69.67
-75.16
-79.94
-84.51
-89.77
-96.82
-106.75
-119.96
-135.59
-151.07
-162.23
-164.33
-153.61
