1523180568.00
64.000000
-0.00
-0.00
-0.00
-0.00
-0.00
-0.00
-0.00
-0.00
-0.00
-0.00
0.00
0.01
0.01
-0.00
-0.03
-0.05
-0.05
0.00
0.13
0.36
0.66
1.01
1.37
1.72
2.06
2.40
2.79
3.24
3.80
4.42
5.06
5.66
6.20
6.68
7.15
7.68
8.31
9.14
10.09
11.04
11.88
12.56
13.14
13.76
14.65
15.96
17.91
20.32
22.90
25.38
27.58
29.57
31.68
34.32
37.81
42.54
48.15
54.10
59.83
64.97
69.58
74.14
79.34
85.71
93.76
103.00
112.62
121.73
129.77
136.75
143.30
150.75
157.77
166.64
177.95
191.79
206.97
220.57
228.25
225.36
208.53
176.87
132.76
80.05
23.07
-34.94
-92.44
-149.16
-205.23
-260.37
-313.74
-363.87
-409.83
-450.91
-486.50
-515.74
-537.23
-549.22
-549.96
-538.37
-514.21
-478.67
-433.88
-382.45
-327.02
-269.84
-212.63
-156.66
-102.95
-52.37
-5.90
35.58
71.43
101.35
125.50
144.38
158.69
169.15
176.37
180.75
182.57
182.07
179.51
175.23
169.65
163.18
156.15
148.81
141.30
133.69
126.02
118.33
110.69
103.16
95.80
88.68
81.83
75.25
68.95
62.95
57.25
51.86
46.78
42.03
37.59
33.45
29.61
26.07
22.81
19.83
17.11
14.67
12.48
10.54
8.83
7.35
6.07
4.97
4.05
3.27
2.62
2.09
1.65
1.30
1.01
0.79
0.61
0.48
0.37
0.30
0.25
0.21
0.19
0.19
0.19
0.21
0.23
0.26
0.29
0.33
0.37
0.41
0.46
0.50
0.55
0.60
0.66
0.71
0.77
0.84
0.91
0.99
1.07
1.17
1.28
1.40
1.54
1.69
1.86
2.05
2.26
2.49
2.76
3.04
3.36
3.70
4.08
4.50
4.94
5.42
5.94
6.49
7.09
7.73
8.41
9.14
9.91
10.73
11.59
12.49
13.45
14.47
15.55
16.70
17.91
19.16
20.43
21.66
22.80
23.75
24.39
24.62
24.32
23.42
21.84
19.59
16.69
13.19
9.25
5.01
0.68
-3.55
-7.49
-10.96
-13.83
-16.02
-17.47
-18.17
-18.23
-17.72
-16.74
-15.40
-13.82
-12.09
-10.27
-8.42
-6.52
-4.64
-2.81
-1.00
0.75
2.46
4.14
5.79
7.44
9.17
10.95
12.78
14.76
16.96
19.43
22.25
25.42
28.96
33.00
37.28
41.71
46.23
50.80
55.40
60.02
64.61
69.28
74.15
79.01
83.84
88.75
93.82
99.13
104.66
110.28
115.92
121.67
127.02
131.76
135.85
139.17
141.32
141.54
138.59
130.56
119.96
107.44
93.70
79.45
65.27
51.43
37.88
24.24
10.11
-4.61
-20.32
-36.81
-53.56
-69.99
-85.73
-100.75
-115.39
-130.21
-145.99
-164.08
-185.24
-209.15
-233.97
-256.38
-272.25
-278.04
-272.09
-255.31
-231.18
-204.20
-178.45
-156.45
-138.97
-125.34
-114.20
-104.04
-93.56
-81.83
-68.22
-52.46
-34.79
-16.00
2.85
20.67
36.66
50.47
62.10
71.68
79.17
84.30
86.57
85.56
81.33
74.62
66.82
59.53
54.04
50.93
49.85
49.92
50.20
50.11
49.77
49.70
50.49
52.36
54.99
57.55
59.05
58.70
56.28
52.17
47.28
42.68
39.31
37.60
37.44
38.28
39.58
41.23
43.70
47.92
54.73
64.28
75.35
85.46
91.39
90.12
79.89
60.79
34.76
4.83
-25.90
-55.31
-82.91
-109.88
-138.69
-172.26
-212.85
-260.84
-313.75
-366.10
-410.45
-439.49
-448.29
-435.88
-405.23
-361.73
-311.04
-257.59
-204.18
-152.94
-106.04
-66.04
-35.17
-14.01
-0.98
7.22
14.21
22.40
32.15
41.99
49.86
54.20
54.89
53.07
50.49
48.66
48.24
48.83
49.48
49.14
47.37
44.37
40.97
38.11
36.41
35.86
35.94
35.85
34.83
32.31
28.06
22.05
14.52
5.99
-2.71
-10.56
-16.40
-19.32
-18.85
-15.03
-8.36
0.34
10.23
20.51
30.47
39.59
47.34
53.32
57.20
58.94
58.70
56.87
54.09
50.99
48.05
45.53
43.47
41.71
40.07
38.32
36.26
33.73
30.60
26.83
22.42
17.54
12.25
6.52
0.21
-6.78
-14.31
-21.89
-28.61
-33.43
-35.43
-34.00
-29.14
-21.29
-11.32
-0.26
10.90
21.33
30.46
37.87
43.25
46.43
47.38
46.24
43.48
39.69
35.54
31.59
28.08
25.05
22.26
19.51
16.61
13.58
10.62
7.99
5.91
4.42
3.32
2.16
0.48
-2.17
-6.04
-11.21
-17.54
-24.56
-31.55
-37.42
-41.05
-41.45
-38.12
-31.22
-21.45
-9.84
2.60
15.02
26.82
37.40
46.21
52.74
56.73
58.33
58.09
56.77
55.04
53.37
51.83
50.28
48.52
46.38
43.83
40.93
37.80
34.55
31.31
28.18
25.18
22.24
19.15
15.58
11.23
5.79
-0.88
-8.65
-17.03
-25.17
-31.88
-35.91
-36.32
-32.70
-25.35
-15.15
-3.27
9.00
20.63
30.83
39.05
45.00
48.54
49.76
48.97
46.64
43.32
39.56
35.92
32.80
30.48
29.10
28.56
28.62
28.90
28.96
28.52
27.32
25.28
22.36
18.60
14.05
8.79
2.92
-3.51
-10.49
-18.00
-25.94
-33.87
-41.05
-46.38
-48.66
-47.07
-41.34
-32.02
-20.24
-7.48
4.88
15.80
24.74
31.54
36.27
39.07
40.16
39.70
38.01
35.44
32.41
29.39
26.79
24.76
23.28
22.09
20.86
19.34
17.43
15.27
13.03
10.88
8.77
6.48
3.58
-0.30
-5.38
-11.63
-18.64
-25.73
-32.02
-36.57
-38.58
-37.57
-33.46
-26.72
-18.09
-8.54
1.02
9.83
17.41
23.44
27.80
30.45
31.60
31.55
30.74
29.64
28.60
27.84
27.30
26.79
26.04
24.77
22.83
20.19
16.95
13.26
9.32
5.19
0.83
-3.92
-9.24
-15.17
-21.54
-27.88
-33.44
-37.41
-39.08
-37.92
-33.76
-26.83
-17.65
-7.07
3.97
14.51
23.76
31.21
36.52
39.61
40.49
39.45
36.90
33.43
29.63
25.98
22.64
19.51
16.27
12.60
8.41
3.85
-0.73
-4.93
-8.54
-11.65
-14.68
-18.14
-22.52
-27.95
-34.11
-40.25
-45.26
-48.02
-47.60
-43.46
-35.60
-24.55
-11.29
2.87
16.57
28.59
38.00
44.31
47.47
47.85
45.98
42.58
38.30
33.80
29.56
25.93
23.02
20.71
18.68
16.46
13.67
10.17
6.03
1.63
-2.62
-6.43
-9.81
-13.03
-16.57
-20.89
-26.23
-32.52
-39.34
-45.93
-51.30
-54.42
-54.43
-50.78
-43.50
-33.14
-20.75
-7.63
4.93
15.95
24.81
31.31
35.55
37.77
38.25
37.25
35.10
32.19
29.00
26.02
23.61
21.87
20.66
19.70
18.65
17.30
15.56
13.46
11.08
8.48
5.62
2.47
-1.07
-5.07
-9.65
-14.92
-20.99
-27.87
-35.34
-42.92
-49.82
-55.06
-57.67
-56.90
-52.45
-44.61
-34.13
-22.16
-9.88
1.62
11.57
19.50
25.23
28.81
30.51
30.72
29.96
28.69
27.27
25.88
24.62
23.57
22.77
22.29
22.16
22.29
22.45
22.31
21.63
20.23
18.07
15.26
11.94
8.27
4.38
0.37
-3.78
-8.22
-13.20
-19.00
-25.69
-33.01
-40.23
-46.27
-49.89
-50.15
-46.63
-39.69
-30.25
-19.57
-8.85
0.99
9.42
16.25
21.48
25.18
27.45
28.52
28.73
28.51
28.21
28.04
27.86
27.47
26.67
25.40
23.85
22.30
20.96
19.88
18.82
17.44
15.42
12.64
9.13
5.09
0.65
-4.02
-8.87
-13.87
-19.00
-24.27
-29.68
-35.19
-40.74
-46.07
-50.66
-53.79
-54.64
-52.57
-47.42
-39.51
-29.63
-18.77
-7.89
2.21
11.00
18.19
23.59
27.15
28.92
29.14
28.23
26.67
24.92
23.30
21.94
20.85
19.90
19.00
18.05
17.00
15.86
14.56
13.04
11.25
9.17
6.81
4.24
1.57
-1.17
-3.89
-6.60
-9.36
-12.32
-15.66
-19.53
-23.99
-28.96
-34.13
-38.98
-42.88
-45.14
-45.18
-42.63
-37.41
-29.87
-20.74
-10.99
-1.62
6.51
12.85
17.19
19.66
20.52
20.12
18.77
16.74
14.31
11.74
9.31
7.28
5.79
4.85
4.38
4.20
4.08
3.88
3.53
3.02
2.40
1.61
0.60
-0.71
-2.37
-4.42
-6.85
-9.68
-13.02
-17.02
-21.80
-27.19
-32.78
-37.78
-41.25
-42.30
-40.46
-35.74
-28.65
-20.05
-10.92
-2.12
5.69
12.03
16.57
19.11
19.63
18.31
15.51
11.85
7.96
4.37
1.49
-0.49
-1.61
-2.01
-1.83
-1.25
-0.40
0.52
1.29
1.72
1.65
1.06
0.03
-1.42
-3.39
-6.01
-9.43
-13.75
-18.89
-24.53
-30.14
-35.00
-38.36
-39.50
-37.90
-33.44
-26.38
-17.38
-7.38
2.65
11.86
19.65
25.65
29.73
31.88
32.18
30.83
28.16
24.63
20.77
17.05
13.84
11.19
8.96
6.92
4.87
2.71
0.50
-1.70
-3.86
-5.99
-8.16
-10.46
-12.93
-15.56
-18.38
-21.43
-24.87
-28.88
-33.51
-38.55
-43.40
-47.22
-49.02
-48.03
-43.84
-36.66
-27.17
-16.38
-5.41
4.81
13.62
20.67
25.90
29.45
31.49
32.28
32.02
30.90
29.11
26.88
24.47
22.10
19.97
18.26
17.01
16.23
15.79
15.48
14.98
14.02
12.33
9.86
6.69
3.00
-0.94
-5.07
-9.44
-14.25
-19.73
-26.05
-33.10
-40.46
-47.41
-52.95
-56.13
-56.14
-52.70
-46.01
-36.86
-26.29
-15.38
-5.04
4.19
12.07
18.52
23.51
27.01
29.09
29.87
29.74
29.19
28.68
28.49
28.66
29.00
29.27
29.30
29.10
28.80
28.44
27.94
27.00
25.28
22.56
18.83
14.35
9.48
4.56
-0.22
-4.79
-9.20
-13.56
-18.03
-22.83
-28.17
-34.09
-40.29
-46.14
-50.68
-52.85
-51.93
-47.71
-40.57
-31.31
-20.99
-10.54
-0.64
8.24
15.84
21.97
26.49
29.33
30.58
30.50
29.52
28.17
26.93
26.17
25.97
26.21
26.72
27.23
27.54
27.59
27.36
26.88
26.20
25.26
23.96
22.21
19.91
17.07
13.81
10.36
6.92
3.67
0.59
-2.52
-6.03
-10.25
-15.46
-21.75
-28.93
-36.58
-44.01
-50.41
-54.92
-56.79
-55.55
-51.06
-43.64
-33.97
-23.04
-11.81
-1.18
8.16
15.77
21.44
25.13
27.01
27.41
26.79
25.66
24.61
24.00
23.99
24.51
25.41
26.39
27.25
27.81
28.04
27.87
27.30
26.29
24.84
22.91
20.48
17.53
14.10
10.31
6.42
2.67
-0.75
-3.77
-6.60
-9.61
-13.15
-17.48
-22.58
-28.09
-33.47
-37.98
-40.85
-41.44
-39.39
-34.61
-27.45
-18.55
-8.75
1.09
10.18
17.92
23.97
28.13
30.46
31.13
30.40
28.64
26.28
23.69
21.17
18.91
17.03
15.58
14.49
13.70
13.11
12.58
11.99
11.29
10.43
9.39
8.09
6.41
4.19
1.44
-1.83
-5.36
-8.90
-12.24
-15.27
-18.07
-20.81
-23.80
-27.26
-31.43
-36.33
-41.70
-46.96
-51.33
-53.89
-53.89
-50.94
-45.11
-36.93
-27.20
-16.74
-6.30
3.64
12.69
20.61
27.18
32.23
35.80
38.04
39.25
39.71
39.61
39.03
38.00
36.51
34.71
32.81
31.01
29.46
28.10
26.80
25.34
23.47
21.05
18.02
14.37
10.19
5.58
0.70
-4.30
-9.26
-14.05
-18.60
-22.89
-26.98
-31.08
-35.38
-40.07
-45.16
-50.34
-55.02
-58.33
-59.35
-57.46
-52.47
-44.72
-35.03
-24.42
-13.83
-3.96
4.80
12.29
18.46
23.26
26.62
28.52
29.07
28.61
27.62
26.58
25.85
25.45
25.19
24.81
24.20
23.43
22.77
22.45
22.49
22.67
22.50
21.55
19.58
16.56
12.74
8.43
3.89
-0.73
-5.49
-10.53
-16.03
-22.09
-28.74
-35.79
-42.81
-49.19
-54.15
-56.89
-56.78
-53.60
-47.55
-39.34
-29.88
-20.18
-10.97
-2.70
4.51
10.74
16.10
20.58
24.10
26.57
27.99
28.53
28.43
27.94
27.20
26.18
24.87
23.32
21.70
20.23
19.02
17.99
16.85
15.22
12.80
9.50
5.42
0.80
-4.11
-9.19
-14.44
-19.99
-25.94
-32.26
-38.76
-45.02
-50.37
-54.12
-55.57
-54.26
-50.07
-43.27
-34.52
-24.77
-14.99
-6.02
1.62
7.73
12.37
15.74
18.13
19.73
20.73
21.28
21.53
21.62
21.65
21.67
21.62
21.33
20.61
19.29
17.28
14.61
11.43
7.95
4.35
0.77
-2.83
-6.58
-10.66
-15.22
-20.25
-25.62
-30.93
-35.66
-39.14
-40.70
-39.83
-36.28
-30.19
-22.06
-12.71
-3.03
6.11
14.01
20.17
24.31
26.33
26.33
24.63
21.74
18.28
14.84
11.89
9.60
7.87
6.41
4.94
3.29
1.52
-0.18
-1.62
-2.76
-3.75
-4.98
-6.84
-9.69
-13.70
-18.77
-24.60
-30.65
-36.22
-40.45
-42.54
-41.84
-38.04
-31.30
-22.27
-11.99
-1.59
7.89
15.66
21.31
24.69
25.86
25.00
22.43
18.66
14.27
9.94
6.19
3.37
1.56
0.56
0.07
-0.23
-0.54
-0.95
-1.45
-2.14
-3.12
-4.68
-7.18
-10.90
-15.87
-21.72
-27.69
-32.73
-35.79
-36.11
-33.42
-27.96
-20.31
-11.32
-1.88
7.22
15.31
21.88
26.62
29.44
30.38
29.65
27.53
24.34
20.49
16.48
12.78
9.73
7.37
5.53
3.97
2.44
0.88
-0.63
-1.97
-3.09
-4.20
-5.63
-7.82
-11.14
-15.72
-21.35
-27.49
-33.29
-37.74
-39.86
-38.98
-34.78
-27.56
-18.06
-7.34
3.48
13.44
21.90
28.58
33.35
36.21
37.15
36.20
33.64
29.98
25.88
22.05
18.97
16.74
15.20
13.97
12.71
11.22
9.49
7.63
5.76
3.98
2.22
0.29
-2.21
-5.72
-10.59
-17.01
-24.74
-33.10
-41.09
-47.52
-51.16
-51.07
-46.81
-38.55
-27.10
-13.73
0.13
13.22
24.58
33.71
40.45
44.82
47.03
47.34
46.15
43.88
41.04
38.02
35.15
32.65
30.60
29.00
27.75
26.65
25.47
24.00
22.10
19.71
16.84
13.54
9.86
5.82
1.45
-3.25
-8.38
-14.12
-20.74
-28.35
-36.82
-45.52
-53.36
-59.02
-61.30
-59.46
-53.45
-43.95
-32.11
-19.22
-6.37
5.71
16.64
26.21
34.24
40.56
45.07
47.83
49.13
49.41
49.06
48.32
47.21
45.70
43.82
41.67
39.49
37.55
35.96
34.64
33.38
31.86
29.78
26.89
23.13
18.62
13.60
8.39
3.28
-1.62
-6.36
-11.16
-16.35
-22.22
-28.89
-36.31
-44.08
-51.47
-57.49
-61.07
-61.28
-57.58
-50.05
-39.33
-26.48
-12.78
0.53
12.51
22.47
30.16
35.58
38.90
40.40
40.44
39.39
37.66
35.66
33.72
32.06
30.78
29.85
29.15
28.56
27.98
27.34
26.65
25.99
25.40
24.83
24.08
22.92
21.07
18.38
14.91
10.88
6.59
2.25
-2.03
-6.27
-10.49
-14.66
-18.75
-22.75
-26.80
-31.14
-35.89
-40.85
-45.44
-48.74
-49.70
-47.62
-42.31
-34.24
-24.35
-13.75
-3.38
6.12
14.39
21.32
26.85
30.91
33.41
34.36
33.94
32.52
30.61
28.72
27.18
26.13
25.54
25.35
25.49
26.00
26.87
27.97
29.03
29.65
29.52
28.52
26.76
24.52
22.06
19.48
16.65
13.35
9.31
4.41
-1.26
-7.43
-13.74
-19.81
-25.42
-30.43
-34.91
-39.06
-43.12
-47.16
-51.10
-54.48
-56.57
-56.64
-54.13
-48.85
-41.15
-31.79
-21.71
-11.80
-2.78
4.95
11.16
15.71
18.66
20.09
20.31
19.70
18.80
18.10
18.00
18.67
20.08
22.09
24.45
26.97
29.49
31.79
33.66
34.80
34.88
33.73
31.28
27.67
23.14
18.05
12.64
7.09
1.47
-4.10
-9.55
-14.76
-19.68
-24.24
-28.47
-32.52
-36.50
-40.51
-44.52
-48.26
-51.28
-52.98
-52.76
-50.23
-45.29
-38.16
-29.40
-19.70
-9.84
-0.51
7.64
14.23
19.00
21.85
22.91
22.45
20.93
18.82
16.62
14.65
13.05
11.78
10.78
9.99
9.43
9.18
9.28
9.67
10.18
10.54
10.53
10.03
9.02
7.59
5.82
3.84
1.67
-0.61
-3.10
-5.88
-9.15
-13.13
-18.04
-23.88
-30.43
-37.18
-43.37
-48.19
-50.91
-51.03
-48.43
-43.29
-36.08
-27.45
-18.15
-8.95
-0.53
6.59
12.06
15.69
17.54
17.76
16.78
15.09
13.19
11.55
10.35
9.64
9.28
9.15
9.20
9.43
9.85
10.38
10.74
10.65
9.82
8.17
5.75
2.72
-0.76
-4.53
-8.53
-12.77
-17.23
-22.04
-27.23
-32.80
-38.54
-44.00
-48.41
-50.90
-50.72
-47.50
-41.41
-33.07
-23.40
-13.33
-3.62
5.18
12.70
18.63
22.76
25.00
25.44
24.39
22.33
19.73
16.90
14.02
11.15
8.34
5.67
3.26
1.24
-0.43
-1.85
-3.31
-5.00
-7.07
-9.48
-12.10
-14.75
-17.32
-19.78
-22.23
-24.88
-27.98
-31.78
-36.34
-41.49
-46.78
-51.48
-54.82
-56.04
-54.71
-50.79
-44.77
-37.46
-29.76
-22.48
-16.11
-10.83
-6.52
-2.96
0.19
3.26
6.48
10.02
13.83
17.68
21.26
24.25
26.49
28.05
29.22
30.32
31.59
33.12
34.80
36.37
37.49
37.87
37.25
35.65
33.18
30.03
26.38
22.32
17.79
12.58
6.56
-0.33
-7.86
-15.49
-22.38
-27.63
-30.44
-30.34
-27.34
-21.90
-14.80
-6.93
0.91
8.13
14.27
19.02
22.17
23.65
23.64
22.54
20.87
19.19
17.84
16.93
16.33
15.87
15.42
14.95
14.56
14.32
14.22
14.10
13.78
13.04
11.77
9.96
7.75
5.32
2.79
0.16
-2.75
-6.26
-10.69
-16.21
-22.77
-29.93
-36.97
-43.01
-47.13
-48.65
-47.18
-42.69
-35.61
-26.65
-16.71
-6.73
2.47
10.28
16.36
20.59
23.01
23.83
23.36
21.92
19.90
17.68
15.53
13.68
12.22
11.16
10.49
10.13
9.99
9.93
9.74
9.27
8.39
6.97
5.01
2.50
-0.43
-3.71
-7.25
-10.99
-14.95
-19.18
-23.74
-28.53
-33.18
-37.11
-39.57
-39.78
-37.22
-31.78
-23.79
-13.99
-3.36
7.12
16.56
24.32
30.02
33.53
34.95
34.59
32.87
30.32
27.42
24.57
21.99
19.79
17.98
16.48
15.21
14.01
12.78
11.43
9.89
8.16
6.21
3.98
1.44
-1.40
-4.61
-8.18
-12.20
-16.79
-22.12
-28.23
-34.81
-41.28
-46.71
-50.13
-50.69
-48.03
-42.27
-34.00
-24.11
-13.64
-3.54
5.49
12.95
18.63
22.48
24.63
25.34
25.03
24.14
23.11
22.33
21.99
22.08
22.42
22.72
22.72
22.20
21.02
19.14
16.60
13.44
9.61
5.10
-0.11
-5.91
-12.10
-18.47
-24.85
-31.18
-37.42
-43.44
-48.87
-53.05
-55.08
-54.15
-49.75
-41.98
-31.49
-19.47
-7.18
4.25
14.01
21.70
27.25
30.71
32.28
32.13
30.53
27.89
24.75
21.69
19.23
17.64
16.92
16.83
17.02
17.16
17.06
16.63
15.83
14.56
12.71
10.21
7.03
3.25
-0.99
-5.65
-10.73
-16.35
-22.63
-29.58
-36.88
-43.82
-49.42
-52.59
-52.42
-48.54
-41.16
-31.10
-19.54
-7.70
3.35
12.90
20.51
26.01
29.44
31.03
31.11
30.19
28.80
27.44
26.48
26.03
25.98
26.12
26.23
26.15
25.83
25.24
24.34
23.14
21.68
19.94
17.89
15.47
12.58
9.19
5.31
1.02
-3.72
-9.00
-15.01
-21.87
-29.35
-36.80
-43.26
-47.58
-48.85
-46.64
-41.07
-32.80
-22.76
-12.03
-1.57
7.85
15.73
21.89
26.31
29.15
30.67
31.17
31.05
30.67
30.34
30.25
30.36
30.55
30.66
30.56
30.21
29.69
28.96
27.94
26.41
24.14
21.01
17.08
12.52
7.63
2.68
-2.16
-6.81
-11.35
-15.98
-20.90
-26.31
-32.24
-38.46
-44.42
-49.30
-52.18
-52.19
-48.87
-42.24
-32.86
-21.74
-10.02
1.22
11.07
19.00
24.76
28.29
29.80
29.65
28.32
26.35
24.29
22.57
21.49
21.11
21.40
22.21
23.37
24.68
25.96
26.98
27.53
27.42
26.43
24.45
21.44
17.52
12.95
8.04
3.11
-1.62
-6.15
-10.71
-15.63
-21.18
-27.44
-34.20
-40.83
-46.56
-50.47
-51.81
-50.13
-45.38
-37.93
-28.54
-18.16
-7.74
1.90
10.18
16.78
21.61
24.80
26.56
27.17
26.98
26.32
25.52
24.82
24.39
24.22
24.22
24.22
24.09
23.76
23.19
22.36
21.25
19.79
17.90
15.53
12.71
9.52
6.11
2.61
-0.91
-4.51
-8.32
-12.59
-17.64
-23.63
-30.45
-37.62
-44.32
-49.52
-52.21
-51.75
-47.94
-41.08
-31.84
-21.09
-9.68
1.52
11.86
20.75
27.79
32.81
35.77
36.91
36.57
35.15
33.02
30.39
27.39
24.10
20.62
17.10
13.83
11.04
8.89
7.38
6.30
5.31
4.06
2.33
0.00
-2.87
-6.20
-9.81
-13.59
-17.53
-21.70
-26.27
-31.23
-36.49
-41.56
-45.75
-48.23
-48.27
-45.51
-40.01
-32.32
-23.23
-13.64
-4.31
4.27
11.77
18.01
22.92
26.42
28.53
29.41
29.38
28.89
28.29
27.90
27.76
27.84
28.06
28.28
28.35
28.14
27.40
25.91
23.45
19.97
15.56
10.45
4.94
-0.73
-6.45
-12.27
-18.28
-24.61
-31.35
-38.43
-45.60
-52.41
-58.14
-61.99
-63.18
-61.14
-55.71
-47.25
-36.54
-24.72
-12.94
-2.16
7.01
14.28
19.74
23.63
26.20
27.70
28.28
28.08
27.28
26.11
24.80
23.52
22.37
21.25
20.02
18.53
16.66
14.41
11.85
8.96
5.75
2.21
-1.59
-5.56
-9.58
-13.65
-17.95
-22.81
-28.49
-35.00
-41.95
-48.53
-53.66
-56.28
-55.70
-51.72
-44.68
-35.33
-24.59
-13.35
-2.40
7.68
16.44
23.58
28.96
32.57
34.54
35.12
34.64
33.42
31.81
30.03
28.21
26.33
24.34
22.20
19.87
17.46
15.06
12.74
10.51
8.28
5.94
3.39
0.55
-2.69
-6.45
-10.88
-16.13
-22.27
-29.30
-36.92
-44.52
-51.21
-55.92
-57.56
-55.45
-49.51
-40.28
-28.84
-16.46
-4.33
6.73
16.25
24.01
29.95
34.06
36.45
37.26
36.81
35.54
33.88
32.18
30.67
29.37
28.25
27.22
26.15
24.83
23.01
20.45
16.95
12.54
7.39
1.86
-3.61
-8.72
-13.37
-17.65
-21.80
-26.09
-30.61
-35.18
-39.31
-42.27
-43.20
-41.42
-36.63
-29.10
-19.55
-9.05
1.23
10.34
17.69
23.04
26.51
28.36
28.91
28.44
27.31
25.89
24.54
23.53
22.99
22.89
23.10
23.42
23.74
23.87
23.60
22.74
21.08
18.55
15.25
11.34
6.97
2.18
-3.08
-8.96
-15.52
-22.75
-30.45
-38.27
-45.65
-51.86
-56.01
-57.27
-55.05
-49.22
-40.21
-28.99
-16.80
-4.96
5.51
13.99
20.27
24.51
27.13
28.50
28.98
28.87
28.36
27.63
26.84
26.15
25.60
25.10
24.46
23.39
21.74
19.49
16.74
13.69
10.50
7.22
3.83
0.17
-3.91
-8.56
-13.91
-20.14
-27.27
-35.20
-43.50
-51.42
-57.90
-61.82
-62.29
-58.83
-51.59
-41.20
-28.72
-15.39
-2.40
9.19
18.71
25.87
30.72
33.48
34.52
34.12
32.54
30.10
27.16
24.11
21.34
19.08
17.37
16.10
15.14
14.29
13.42
12.33
10.86
8.78
6.02
2.59
-1.23
-5.13
-8.89
-12.42
-15.95
-19.89
-24.60
-30.18
-36.27
-42.05
-46.42
-48.26
-46.78
-41.78
-33.71
-23.53
-12.47
-1.66
8.07
16.29
22.95
28.17
32.07
34.64
35.89
35.85
34.74
32.98
31.05
29.31
27.95
26.92
26.08
25.31
24.57
23.83
23.02
21.93
20.22
17.65
14.07
9.61
4.59
-0.60
-5.70
-10.65
-15.66
-21.05
-27.15
-34.05
-41.47
-48.72
-54.78
-58.57
-59.15
-56.06
-49.37
-39.77
-28.33
-16.30
-4.78
5.36
13.64
19.92
24.26
26.94
28.26
28.57
28.25
27.61
26.84
26.10
25.47
24.99
24.73
24.66
24.73
24.78
24.55
23.77
22.19
19.66
16.12
11.69
6.65
1.35
-3.80
-8.51
-12.71
-16.56
-20.43
-24.70
-29.55
-34.78
-39.81
-43.74
-45.66
-44.80
-40.80
-33.78
-24.37
-13.46
-2.16
8.50
17.77
25.15
30.46
33.77
35.28
35.31
34.25
32.50
30.47
28.46
26.65
25.09
23.69
22.37
21.04
19.66
18.23
16.74
15.18
13.49
11.59
9.36
6.79
3.84
0.59
-2.89
-6.58
-10.51
-14.96
-20.18
-26.29
-33.07
-39.89
-45.68
-49.29
-49.77
-46.65
-40.07
-30.75
-19.75
-8.26
2.61
12.01
19.44
24.69
27.83
29.13
28.96
27.73
25.86
23.74
21.77
20.25
19.40
19.22
19.54
20.08
20.56
20.74
20.54
19.92
18.81
17.11
14.73
11.64
7.87
3.54
-1.29
-6.69
-12.75
-19.59
-27.13
-34.97
-42.38
-48.37
-51.95
-52.35
-49.27
-42.80
-33.54
-22.36
-10.35
1.39
11.90
20.49
26.80
30.78
32.62
32.63
31.26
28.90
26.00
23.04
20.39
18.36
17.07
16.46
16.35
16.47
16.56
16.35
15.64
14.27
12.20
9.40
5.95
1.95
-2.43
-7.04
-11.79
-16.69
-21.99
-27.96
-34.81
-42.43
-50.26
-57.23
-62.06
-63.53
-60.95
-54.27
-44.07
-31.44
-17.64
-3.93
8.61
19.20
27.33
32.82
35.75
36.45
35.40
33.17
30.31
27.29
24.43
21.93
19.92
18.50
17.76
17.72
18.30
19.23
20.17
20.71
20.52
19.38
17.15
13.76
9.22
3.62
-2.83
-9.91
-17.39
-25.13
-33.07
-41.22
-49.37
-56.99
-63.18
-66.81
-66.80
-62.56
-54.18
-42.46
-28.68
-14.32
-0.66
11.37
21.25
28.81
34.10
37.30
38.69
38.69
37.86
36.80
35.99
35.67
35.80
36.08
36.16
35.82
35.03
33.94
32.73
31.38
29.71
27.39
24.13
19.88
14.83
9.29
3.55
-2.17
-7.87
-13.67
-19.77
-26.43
-33.83
-41.97
-50.52
-58.77
-65.61
-69.81
-70.35
-66.73
-59.09
-48.16
-35.08
-21.10
-7.34
5.34
16.28
25.10
31.56
35.60
37.35
37.20
35.68
33.47
31.17
29.20
27.83
26.99
26.52
26.31
26.32
26.59
27.19
28.01
28.75
28.91
27.97
25.56
21.58
16.35
10.32
4.04
-2.09
-7.89
-13.45
-19.00
-24.84
-31.13
-37.87
-44.76
-51.12
-56.13
-58.89
-58.63
-54.93
-47.87
-37.99
-26.26
-13.77
-1.57
9.47
18.78
26.04
31.15
34.13
35.17
34.62
32.92
30.65
28.28
26.18
24.45
23.04
21.73
20.41
19.04
17.70
16.47
15.35
14.23
12.90
11.09
8.61
5.40
1.57
-2.62
-6.84
-10.79
-14.35
-17.56
-20.73
-24.23
-28.40
-33.36
-38.87
-44.28
-48.65
-50.94
-50.29
-46.30
-39.08
-29.26
-17.80
-5.85
5.53
15.45
23.29
28.79
32.01
33.23
32.91
31.55
29.59
27.41
25.28
23.41
21.86
20.72
19.99
19.67
19.73
20.04
20.40
20.55
20.18
19.05
16.99
13.99
10.12
5.49
0.30
-5.20
-10.82
-16.37
-21.77
-27.08
-32.48
-38.07
-43.71
-48.99
-53.13
-55.18
-54.33
-50.14
-42.72
-32.76
-21.26
-9.37
1.96
11.95
20.22
26.51
30.76
33.03
33.46
32.41
30.32
27.75
25.17
22.96
21.22
19.93
18.96
18.20
17.66
17.36
17.32
17.45
17.53
17.18
16.13
14.27
11.62
8.42
4.86
1.01
-3.28
-8.31
-14.41
-21.74
-30.21
-39.32
-48.26
-55.99
-61.40
-63.53
-61.81
-56.16
-46.99
-35.24
-22.16
-9.06
2.80
12.54
19.67
24.14
26.28
26.55
25.54
23.76
21.69
19.64
17.89
16.62
15.86
15.56
15.58
15.75
15.89
15.87
15.60
15.02
14.01
12.51
10.49
7.99
5.15
2.18
-0.79
-3.82
-7.16
-11.30
-16.65
-23.38
-31.26
-39.55
-47.08
-52.60
-55.00
-53.65
-48.60
-40.46
-30.21
-19.02
-8.00
2.06
10.58
17.23
21.89
24.65
25.76
25.64
24.82
23.78
22.91
22.37
22.20
22.30
22.45
22.51
22.39
22.04
21.44
20.54
19.19
17.20
14.42
10.75
6.24
1.13
-4.30
-9.75
-15.06
-20.33
-25.78
-31.68
-38.19
-45.05
-51.54
-56.58
-58.99
-57.85
-52.80
-44.16
-32.88
-20.21
-7.42
4.48
14.81
23.20
29.51
33.71
35.93
36.39
35.44
33.54
31.12
28.60
26.24
24.20
22.54
21.33
20.58
20.28
20.34
20.53
20.53
20.03
18.75
16.59
13.65
10.16
6.44
2.65
-1.11
-4.92
-9.02
-13.65
-19.07
-25.24
-31.89
-38.35
-43.66
-46.85
-47.12
-44.14
-38.19
-29.97
-20.53
-10.88
-1.83
6.02
12.35
17.03
20.11
21.75
22.21
21.84
20.94
19.82
18.65
17.55
16.53
15.62
14.78
13.96
13.11
12.20
11.18
10.03
8.67
7.04
5.08
2.81
0.28
-2.42
-5.28
-8.33
-11.74
-15.70
-20.37
-25.70
-31.40
-36.89
-41.37
-44.02
-44.06
-41.05
-34.95
-26.24
-15.85
-4.89
5.53
14.53
21.58
26.42
29.08
29.74
28.69
26.29
22.98
19.22
15.45
12.02
9.18
7.01
5.48
4.50
3.85
3.33
2.71
1.84
0.56
-1.16
-3.27
-5.79
-8.69
-12.07
-16.12
-21.02
-26.80
-33.27
-39.85
-45.67
-49.69
-50.94
-48.71
-42.84
-33.75
-22.30
-9.66
2.96
14.52
24.22
31.57
36.35
38.55
38.40
36.28
32.73
28.40
23.96
19.94
16.61
14.00
11.85
9.78
7.48
4.80
1.78
-1.34
-4.40
-7.31
-10.24
-13.45
-17.23
-21.79
-27.19
-33.25
-39.47
-45.13
-49.24
-50.81
-49.15
-44.01
-35.75
-25.23
-13.53
-1.76
9.22
18.83
26.72
32.71
36.77
38.94
39.35
38.25
35.99
32.96
29.57
26.20
23.07
20.23
17.61
15.08
12.54
9.97
7.45
5.03
2.65
0.17
-2.70
-6.21
-10.64
-16.13
-22.73
-30.27
-38.26
-45.79
-51.59
-54.38
-53.16
-47.60
-38.15
-25.95
-12.41
1.12
13.59
24.27
32.74
38.87
42.65
44.23
43.93
42.18
39.49
36.39
33.29
30.51
28.14
26.10
24.25
22.32
20.17
17.66
14.83
11.69
8.37
5.01
1.68
-1.60
-4.96
-8.66
-13.11
-18.68
-25.54
-33.49
-41.85
-49.61
-55.51
-58.39
-57.48
-52.57
-44.06
-32.84
-20.21
-7.48
4.22
14.22
22.15
28.05
32.17
34.84
36.41
37.20
37.47
37.36
37.02
36.46
35.71
34.81
33.80
32.76
31.67
30.49
29.02
27.06
24.38
20.91
16.79
12.22
7.42
2.48
-2.62
-8.05
-14.07
-20.89
-28.61
-37.08
-45.86
-54.05
-60.51
-63.94
-63.35
-58.21
-48.86
-36.31
-22.07
-7.67
5.68
17.19
26.65
34.04
39.55
43.37
45.74
46.93
47.31
47.30
47.17
47.00
46.63
45.77
44.18
41.79
38.73
35.35
32.07
29.16
26.74
24.70
22.69
20.36
17.41
13.72
9.43
4.83
0.28
-4.00
-8.02
-12.03
-16.45
-21.80
-28.41
-36.30
-44.96
-53.47
-60.54
-64.84
-65.35
-61.61
-53.85
-42.97
-30.19
-16.80
-3.87
7.89
18.04
26.34
32.71
37.09
39.57
40.41
39.99
38.78
37.24
35.64
34.09
32.56
31.03
29.52
28.10
26.88
25.88
25.07
24.36
23.64
22.77
21.69
20.31
18.60
16.55
14.13
11.28
7.95
4.05
-0.48
-5.65
-11.41
-17.76
-24.75
-32.36
-40.43
-48.43
-55.50
-60.60
-62.78
-61.46
-56.55
-48.44
-37.89
-25.84
-13.39
-1.45
9.13
17.80
24.23
28.37
30.46
30.82
29.93
28.31
26.43
24.65
23.23
22.24
21.62
21.29
21.13
21.15
21.38
21.86
22.56
23.35
24.02
24.29
23.93
22.82
20.96
18.37
15.16
11.41
7.18
2.58
-2.30
-7.40
-12.72
-18.31
-24.24
-30.48
-36.79
-42.75
-47.70
-50.96
-51.93
-50.26
-45.89
-39.13
-30.57
-21.03
-11.47
-2.72
4.51
9.85
13.25
14.94
15.38
15.11
14.59
14.14
13.90
13.85
13.95
14.19
14.62
15.32
16.34
17.59
18.86
19.85
20.28
19.98
18.85
16.87
14.09
10.58
6.40
1.66
-3.49
-8.94
-14.68
-20.76
-27.25
-34.15
-41.18
-47.73
-52.96
-55.98
-56.05
-52.77
-46.27
-37.12
-26.22
-14.71
-3.63
6.18
14.20
20.21
24.22
26.41
27.01
26.36
24.86
22.96
21.02
19.29
17.82
16.53
15.25
13.87
12.35
10.70
8.87
6.77
4.31
1.42
-1.84
-5.33
-8.96
-12.74
-16.95
-21.84
-27.60
-34.12
-40.90
-47.16
-51.95
-54.44
-54.06
-50.58
-44.19
-35.42
-25.09
-14.14
-3.51
6.07
14.12
20.36
24.76
27.38
28.39
28.05
26.69
24.71
22.46
20.17
17.95
15.75
13.49
11.10
8.64
6.24
4.03
2.10
0.44
-1.15
-2.93
-5.18
-8.19
-12.21
-17.40
-23.74
-30.95
-38.45
-45.34
-50.51
-52.86
-51.77
-47.07
-39.32
-29.50
-18.80
-8.28
1.28
9.41
15.84
20.44
23.21
24.26
23.96
22.75
21.17
19.61
18.30
17.28
16.43
15.65
14.84
13.95
12.91
11.69
10.25
8.54
6.57
4.25
1.52
-1.89
-6.26
-11.86
-18.73
-26.61
-34.90
-42.60
-48.58
-51.76
-51.42
-47.26
-39.61
-29.26
-17.23
-4.64
7.54
18.48
27.56
34.31
38.52
40.18
39.57
37.19
33.66
29.65
25.67
22.16
19.36
17.38
16.19
15.64
15.48
15.45
15.30
14.85
14.00
12.64
10.66
7.95
4.36
-0.30
-6.14
-13.17
-21.15
-29.63
-37.82
-44.76
-49.43
-50.90
-48.62
-42.66
-33.64
-22.68
-11.11
-0.20
9.11
16.34
21.38
24.43
25.74
25.60
24.31
22.27
19.97
17.95
16.64
16.25
16.68
17.62
18.61
19.22
19.10
18.15
16.35
13.82
10.72
7.20
3.34
-0.82
-5.34
-10.36
-16.06
-22.56
-29.87
-37.72
-45.50
-52.17
-56.52
-57.41
-54.16
-46.71
-35.72
-22.44
-8.36
5.07
16.80
26.19
33.09
37.65
40.15
40.86
40.02
37.90
34.78
31.03
27.16
23.58
20.63
18.43
16.94
15.96
15.30
14.79
14.32
13.77
13.02
11.90
10.25
7.86
4.60
0.38
-4.90
-11.33
-18.93
-27.48
-36.48
-45.05
-52.02
-56.25
-56.85
-53.44
-46.24
-36.03
-23.94
-11.24
0.92
11.60
20.18
26.36
30.16
31.88
31.95
30.80
28.88
26.57
24.16
21.85
19.79
18.01
16.46
15.03
13.59
12.05
10.37
8.49
6.38
4.04
1.46
-1.39
-4.56
-8.19
-12.48
-17.62
-23.66
-30.33
-37.02
-42.81
-46.73
-47.90
-45.80
-40.36
-32.00
-21.46
-9.74
2.12
13.11
22.41
29.44
33.84
35.56
34.81
32.04
27.93
23.25
18.68
14.78
11.81
9.77
8.45
7.48
6.55
5.42
4.04
2.52
1.05
-0.23
-1.35
-2.54
-4.18
-6.71
-10.43
-15.44
-21.50
-28.02
-34.12
-38.83
-41.15
-40.36
-36.26
-29.13
-19.81
-9.40
1.01
10.50
18.43
24.47
28.48
30.45
30.48
28.83
25.89
22.21
18.36
14.83
11.88
9.47
7.33
5.08
2.48
-0.58
-3.95
-7.48
-10.96
-14.38
-17.92
-21.88
-26.56
-32.14
-38.56
-45.43
-52.08
-57.57
-60.88
-61.08
-57.60
-50.34
-39.67
-26.42
-11.75
3.14
17.15
29.36
39.14
46.07
49.98
51.02
49.62
46.49
42.44
38.21
34.21
30.57
27.11
23.60
19.90
16.06
12.23
8.59
5.23
2.10
-1.02
-4.45
-8.57
-13.78
-20.33
-28.23
-37.05
-45.87
-53.44
-58.36
-59.43
-56.05
-48.29
-36.97
-23.40
-9.04
4.79
17.10
27.27
35.04
40.31
43.18
43.81
42.57
39.92
36.45
32.77
29.40
26.59
24.40
22.66
21.10
19.45
17.45
15.04
12.18
8.90
5.12
0.66
-4.74
-11.32
-19.19
-28.20
-37.90
-47.50
-55.93
-61.99
-64.61
-62.96
-56.70
-46.15
-32.25
-16.44
-0.34
14.59
27.34
37.38
44.60
49.12
51.17
51.04
49.02
45.56
41.30
37.02
33.32
30.56
28.66
27.21
25.72
23.78
21.26
18.20
14.72
10.88
6.58
1.71
-3.80
-9.92
-16.54
-23.60
-31.14
-39.18
-47.52
-55.52
-62.11
-65.90
-65.60
-60.45
-50.45
-36.42
-19.84
-2.46
14.09
28.56
40.16
48.65
54.11
56.86
57.33
55.98
53.32
49.88
46.18
42.56
39.19
36.05
32.98
29.90
26.85
24.01
21.46
19.22
17.07
14.69
11.83
8.38
4.44
0.22
-4.11
-8.54
-13.33
-18.86
-25.52
-33.44
-42.39
-51.56
-59.75
-65.56
-67.70
-65.42
-58.67
-48.10
-34.90
-20.45
-6.00
7.45
19.20
28.83
36.07
40.85
43.37
44.06
43.53
42.42
41.20
40.09
39.06
37.97
36.76
35.47
34.24
33.27
32.65
32.25
31.78
30.83
28.97
25.92
21.64
16.33
10.36
4.07
-2.33
-8.88
-15.82
-23.41
-31.81
-40.89
-50.07
-58.47
-64.92
-68.30
-67.76
-62.97
-54.19
-42.15
-27.97
-12.92
1.69
14.78
25.49
33.38
38.45
41.02
41.68
41.05
39.70
38.07
36.50
35.20
34.30
33.83
33.75
33.90
34.15
34.37
34.42
34.13
33.30
31.67
29.07
25.37
20.59
14.83
8.33
1.40
-5.66
-12.65
-19.50
-26.37
-33.51
-41.11
-49.06
-56.81
-63.39
-67.51
-68.08
-64.46
-56.70
-45.59
-32.38
-18.44
-4.94
7.20
17.48
25.56
31.25
34.49
35.44
34.56
32.63
30.43
28.62
27.45
26.85
26.52
26.12
25.50
24.72
23.83
22.94
21.93
20.66
18.89
16.44
13.26
9.36
4.92
0.15
-4.73
-9.52
-14.10
-18.55
-23.14
-28.13
-33.76
-40.00
-46.50
-52.50
-57.03
-58.98
-57.55
-52.27
-43.34
-31.56
-18.12
-4.50
8.03
18.49
26.39
31.68
34.57
35.48
34.81
33.02
30.49
27.65
24.77
22.10
19.77
17.87
16.45
15.38
14.54
13.77
12.85
11.65
10.06
8.00
5.50
2.58
-0.71
-4.22
-7.81
-11.33
-14.74
-18.25
-22.22
-26.95
-32.46
-38.29
-43.45
-46.72
-46.94
-43.43
-36.16
-25.79
-13.46
-0.47
11.95
22.84
31.57
37.86
41.72
43.29
42.80
40.47
36.55
31.40
25.52
19.48
13.82
8.91
4.82
1.40
-1.59
-4.35
-6.96
-9.32
-11.32
-12.94
-14.29
-15.57
-17.05
-19.01
-21.73
-25.43
-30.22
-36.05
-42.53
-48.97
-54.35
-57.60
-57.76
-54.34
-47.34
-37.41
-25.55
-12.96
-0.81
10.00
18.87
25.48
29.74
31.73
31.69
30.04
27.34
24.29
21.49
19.31
17.84
16.88
16.03
14.97
13.48
11.55
9.31
6.81
4.07
0.90
-2.97
-7.83
-13.90
-21.22
-29.56
-38.46
-47.16
-54.73
-60.17
-62.57
-61.31
-56.27
-47.83
-36.78
-24.25
-11.37
0.84
11.53
20.12
26.25
29.76
30.73
29.54
26.75
23.00
18.94
15.00
11.46
8.41
5.82
3.62
1.72
0.08
-1.36
-2.56
-3.47
-4.16
-4.84
-5.92
-7.90
-11.21
-16.06
-22.14
-28.74
-34.88
-39.38
-41.31
-39.99
-35.22
-27.30
-16.95
-5.23
6.71
17.75
27.01
33.93
38.27
40.13
39.86
37.92
34.90
31.31
27.60
24.06
20.83
17.83
14.90
11.88
8.67
5.33
2.00
-1.19
-4.12
-6.86
-9.64
-12.74
-16.62
-21.56
-27.70
-34.81
-42.27
-49.08
-54.02
-55.93
-54.00
-48.05
-38.49
-26.33
-12.80
0.79
13.30
23.82
31.73
36.73
38.83
38.41
36.11
32.70
28.91
25.23
21.89
18.83
15.97
13.19
10.51
7.92
5.48
3.19
1.03
-1.02
-2.95
-4.79
-6.76
-9.26
-12.79
-17.73
-24.06
-31.25
-38.26
-43.85
-46.85
-46.49
-42.57
-35.36
-25.54
-14.03
-1.83
10.00
20.50
28.86
34.58
37.49
37.86
36.18
33.10
29.23
25.04
20.85
16.84
13.14
9.88
7.07
4.71
2.75
1.08
-0.41
-1.81
-3.26
-4.97
-7.25
-10.49
-15.03
-20.99
-28.09
-35.60
-42.44
-47.32
-49.16
-47.25
-41.58
-32.76
-21.86
-10.12
1.36
11.82
20.77
27.90
32.99
35.83
36.38
34.85
31.73
27.82
23.87
20.51
17.89
15.80
13.75
11.27
8.15
4.49
0.67
-2.91
-5.99
-8.71
-11.48
-14.83
-19.23
-24.76
-31.10
-37.60
-43.35
-47.44
-49.03
-47.54
-42.74
-34.84
-24.41
-12.38
0.17
12.18
22.73
31.17
37.14
40.59
41.69
40.85
38.63
35.61
32.30
29.11
26.18
23.49
20.88
18.08
14.89
11.13
6.78
1.98
-3.13
-8.42
-13.92
-19.85
-26.46
-33.90
-42.00
-50.17
-57.38
-62.42
-64.18
-61.92
-55.62
-45.77
-33.43
-19.88
-6.37
6.04
16.52
24.56
29.95
32.74
33.23
31.96
29.57
26.66
23.70
20.89
18.23
15.55
12.66
9.50
6.16
2.85
-0.21
-2.94
-5.51
-8.25
-11.61
-16.08
-21.95
-29.19
-37.36
-45.48
-52.25
-56.20
-56.13
-51.46
-42.42
-29.98
-15.70
-1.12
12.45
24.12
33.40
40.08
44.14
45.73
45.24
43.29
40.64
37.96
35.66
33.84
32.34
30.92
29.45
27.94
26.53
25.28
24.09
22.66
20.48
16.98
11.68
4.42
-4.58
-14.53
-24.21
-32.14
-36.90
-37.44
-33.41
-25.21
-13.91
-0.92
12.22
24.21
34.08
41.23
45.39
46.60
45.13
41.48
36.32
30.44
24.56
19.22
14.66
10.73
7.14
3.55
-0.21
-4.07
-7.79
-11.19
-14.27
-17.26
-20.63
-24.91
-30.47
-37.35
-45.09
-52.75
-59.00
-62.45
-61.99
-57.05
-47.83
-35.12
-20.10
-4.08
11.68
26.08
38.21
47.42
53.33
55.97
55.78
53.56
50.20
46.51
43.01
39.84
36.80
33.60
29.97
25.83
21.33
16.80
12.60
8.90
5.63
2.31
-1.74
-7.20
-14.54
-23.75
-34.17
-44.53
-53.14
-58.34
-58.83
-54.03
-44.38
-31.04
-15.64
0.17
15.03
27.97
38.42
46.04
50.71
52.55
51.95
49.66
46.60
43.61
41.23
39.55
38.24
36.77
34.72
31.82
28.11
23.77
18.97
13.84
8.41
2.54
-3.99
-11.52
-20.37
-30.72
-42.33
-54.31
-65.16
-73.06
-76.31
-73.82
-65.51
-52.35
-36.00
-18.37
-1.17
14.36
27.53
38.03
45.72
50.54
52.59
52.21
50.03
46.86
43.58
40.82
38.81
37.41
36.16
34.53
32.15
28.89
24.90
20.50
16.03
11.72
7.55
3.24
-1.52
-7.12
-13.83
-21.65
-30.32
-39.24
-47.41
-53.64
-56.65
-55.50
-49.90
-40.30
-27.79
-13.90
-0.14
12.29
22.61
30.40
35.55
38.18
38.59
37.27
34.85
31.97
29.25
27.04
25.47
24.45
23.69
22.97
22.19
21.32
20.40
19.47
18.40
17.05
15.19
12.62
9.18
4.67
-1.08
-8.35
-17.27
-27.67
-38.99
-50.13
-59.67
-66.04
-67.99
-64.92
-56.99
-45.07
-30.50
-14.73
0.89
15.28
27.67
37.51
44.46
48.41
49.53
48.29
45.41
41.73
37.92
34.41
31.32
28.60
26.09
23.61
21.04
18.24
15.18
11.87
8.36
4.72
1.03
-2.77
-6.84
-11.49
-16.97
-23.41
-30.70
-38.40
-45.70
-51.53
-54.70
-54.20
-49.53
-40.86
-29.05
-15.42
-1.37
11.82
23.23
32.25
38.59
42.12
42.92
41.29
37.74
33.05
28.01
23.32
19.37
16.23
13.66
11.31
8.82
6.03
2.99
-0.08
-2.92
-5.35
-7.42
-9.35
-11.54
-14.43
-18.44
-23.84
-30.55
-38.14
-45.73
-52.12
-56.02
-56.34
-52.53
-44.73
-33.65
-20.47
-6.44
7.28
19.73
30.17
38.00
42.77
44.31
42.82
38.88
33.45
27.53
21.98
17.28
13.52
10.50
7.90
5.46
3.03
0.59
-1.87
-4.31
-6.76
-9.28
-12.08
-15.40
-19.54
-24.75
-30.98
-37.78
-44.34
-49.47
-52.02
-51.00
-46.05
-37.34
-25.65
-12.12
2.03
15.51
27.24
36.36
42.27
44.73
43.90
40.29
34.76
28.31
21.88
16.17
11.55
8.03
5.33
3.00
0.61
-2.17
-5.43
-9.07
-12.79
-16.40
-19.80
-23.13
-26.72
-30.92
-35.97
-41.81
-48.01
-53.73
-57.87
-59.35
-57.24
-51.17
-41.31
-28.48
-13.89
1.04
15.01
27.00
36.29
42.54
45.63
45.65
42.93
38.04
31.73
24.93
18.54
13.20
9.14
6.21
3.99
2.04
0.08
-1.98
-4.06
-6.09
-8.07
-10.12
-12.47
-15.48
-19.50
-24.79
-31.43
-39.11
-47.08
-54.16
-58.97
-60.20
-57.03
-49.30
-37.59
-23.16
-7.57
7.64
21.23
32.44
40.91
46.53
49.34
49.50
47.30
43.29
38.25
33.03
28.36
24.65
21.92
19.96
18.43
16.97
15.40
13.52
11.23
8.44
5.15
1.46
-2.51
-6.68
-11.16
-16.22
-22.19
-29.32
-37.52
-46.24
-54.50
-60.98
-64.34
-63.50
-57.94
-47.83
-34.01
-17.87
-1.01
14.91
28.61
39.22
46.40
50.23
51.12
49.58
46.19
41.52
36.13
30.56
25.33
20.81
17.25
14.65
12.80
11.42
10.16
8.72
6.89
4.55
1.68
-1.66
-5.37
-9.32
-13.44
-17.74
-22.43
-27.77
-33.92
-40.81
-47.98
-54.54
-59.31
-61.01
-58.66
-51.85
-40.85
-26.65
-10.65
5.49
20.31
32.72
42.15
48.43
51.81
52.68
51.49
48.72
44.86
40.39
35.73
31.21
27.04
23.28
19.88
16.81
14.06
11.65
9.60
7.81
6.10
4.21
1.88
-0.97
-4.32
-7.99
-11.85
-15.86
-20.18
-25.12
-30.96
-37.80
-45.36
-52.85
-59.10
-62.69
-62.34
-57.31
-47.65
-34.22
-18.49
-2.17
13.15
26.28
36.56
43.71
47.74
48.88
47.57
44.35
39.95
35.06
30.32
26.12
22.60
19.74
17.38
15.40
13.70
12.22
10.89
9.58
8.20
6.60
4.70
2.44
-0.18
-3.20
-6.58
-10.39
-14.73
-19.77
-25.69
-32.43
-39.62
-46.51
-51.96
-54.78
-54.04
-49.29
-40.79
-29.38
-16.28
-2.83
9.75
20.50
28.78
34.29
37.10
37.52
36.05
33.28
29.81
26.15
22.69
19.71
17.40
15.81
14.91
14.56
14.53
14.44
13.97
12.86
10.94
8.25
4.95
1.25
-2.71
-6.92
-11.43
-16.34
-21.73
-27.65
-33.93
-40.20
-45.85
-50.06
-51.90
-50.67
-45.96
-37.93
-27.17
-14.69
-1.68
10.68
21.37
29.66
35.13
37.70
37.58
35.18
31.12
26.00
20.50
15.15
10.39
6.41
3.21
0.63
-1.54
-3.50
-5.37
-7.11
-8.67
-10.00
-11.14
-12.20
-13.38
-14.95
-17.20
-20.40
-24.64
-29.86
-35.62
-41.18
-45.60
-47.90
-47.27
-43.29
-36.08
-26.18
-14.51
-2.13
9.89
20.62
29.29
35.30
38.32
38.22
35.34
30.35
24.27
18.20
13.00
9.19
6.78
5.44
4.65
4.00
3.23
2.31
1.34
0.41
-0.52
-1.66
-3.30
-5.76
-9.26
-13.95
-19.88
-26.97
-34.85
-42.88
-49.99
-54.87
-56.35
-53.64
-46.73
-36.34
-23.69
-10.24
2.74
14.37
24.03
31.39
36.25
38.59
38.57
36.56
33.13
28.89
24.42
20.13
16.29
12.95
10.02
7.30
4.58
1.67
-1.45
-4.64
-7.67
-10.32
-12.55
-14.58
-16.84
-19.82
-23.93
-29.30
-35.70
-42.50
-48.75
-53.25
-54.79
-52.51
-46.10
-36.00
-23.24
-9.28
4.47
16.89
27.27
35.28
40.78
43.79
44.39
42.85
39.69
35.57
31.37
27.76
25.17
23.64
22.88
22.44
21.90
21.01
19.64
17.76
15.35
12.34
8.70
4.43
-0.34
-5.57
-11.28
-17.60
-24.70
-32.63
-41.14
-49.52
-56.74
-61.52
-62.68
-59.44
-51.75
-40.29
-26.37
-11.60
2.55
15.00
25.16
32.87
38.26
41.47
42.78
42.46
40.97
38.83
36.61
34.73
33.27
32.16
31.16
29.90
28.13
25.78
22.85
19.43
15.63
11.55
7.24
2.71
-2.04
-7.01
-12.25
-17.87
-24.05
-30.98
-38.58
-46.41
-53.48
-58.40
-59.83
-56.85
-49.29
-37.85
-23.79
-8.64
6.11
19.29
30.04
37.87
42.71
44.79
44.70
43.13
40.74
38.02
35.31
32.75
30.40
28.31
26.48
24.88
23.42
21.97
20.35
18.43
16.00
12.95
9.30
5.16
0.77
-3.63
-7.88
-12.00
-16.22
-20.91
-26.42
-32.90
-40.24
-47.86
-54.79
-59.77
-61.52
-59.04
-51.91
-40.54
-26.10
-10.16
5.58
19.79
31.62
40.71
47.05
50.73
51.95
51.04
48.39
44.61
40.36
36.16
32.32
28.92
25.85
23.04
20.50
18.32
16.55
15.09
13.68
12.01
9.85
7.09
3.82
0.19
-3.61
-7.52
-11.59
-15.98
-21.02
-26.96
-33.95
-41.76
-49.78
-56.93
-61.92
-63.51
-60.86
-53.81
-42.89
-29.23
-14.28
0.53
13.89
24.91
33.07
38.15
40.31
39.99
37.84
34.70
31.38
28.49
26.36
25.00
24.21
23.73
23.41
23.18
23.01
22.89
22.62
21.97
20.65
18.39
14.99
10.40
4.66
-2.07
-9.61
-17.80
-26.58
-35.86
-45.54
-55.15
-63.91
-70.74
-74.47
-74.18
-69.48
-60.51
-48.05
-33.28
-17.53
-2.11
11.85
23.56
32.47
38.32
41.18
41.32
39.26
35.67
31.25
26.70
22.63
19.44
17.28
16.11
15.60
15.36
15.00
14.25
12.98
11.29
9.30
7.11
4.74
2.05
-1.12
-4.99
-9.69
-15.34
-21.93
-29.25
-36.80
-43.72
-48.96
-51.38
-50.14
-44.93
-36.15
-24.77
-12.12
0.49
12.00
21.76
29.43
34.98
38.46
40.02
39.90
38.38
35.79
32.56
29.02
25.46
22.02
18.73
15.55
12.39
9.15
5.78
2.29
-1.24
-4.74
-8.23
-11.89
-15.96
-20.83
-26.82
-34.06
-42.44
-51.55
-60.64
-68.71
-74.66
-77.35
-75.88
-69.78
-59.19
-44.91
-28.28
-10.90
5.71
20.32
32.15
40.93
46.66
49.56
49.99
48.41
45.40
41.62
37.69
34.06
30.99
28.41
26.15
23.94
21.59
19.03
16.29
13.35
10.23
6.80
2.86
-1.75
-7.15
-13.33
-20.28
-27.91
-36.10
-44.55
-52.61
-59.30
-63.35
-63.65
-59.54
-51.14
-39.35
-25.54
-11.13
2.66
15.04
25.51
33.79
39.66
43.01
43.94
42.79
40.20
36.87
33.46
30.46
28.05
26.25
24.97
24.10
23.54
23.19
22.95
22.60
21.90
20.55
18.33
15.11
10.82
5.39
-1.23
-9.17
-18.49
-29.05
-40.35
-51.45
-60.99
-67.45
-69.46
-66.22
-57.78
-44.99
-29.39
-12.76
3.30
17.60
29.47
38.60
44.93
48.52
49.53
48.29
45.33
41.30
36.82
32.37
28.25
24.59
21.46
18.87
16.82
15.16
13.70
12.21
10.57
8.67
6.54
4.12
1.28
-2.27
-6.81
-12.53
-19.52
-27.69
-36.69
-45.86
-54.19
-60.37
-63.05
-61.24
-54.71
-43.99
-30.42
-15.64
-1.16
11.96
23.07
31.92
38.37
42.42
44.13
43.75
41.82
39.01
36.02
33.34
31.28
29.84
28.85
28.01
27.08
25.82
24.09
21.78
18.88
15.37
11.20
6.31
0.64
-5.87
-13.28
-21.63
-30.85
-40.75
-50.81
-60.13
-67.47
-71.37
-70.65
-64.73
-53.86
-39.09
-22.01
-4.34
12.35
26.89
38.55
46.93
51.93
53.73
52.72
49.50
44.82
39.47
34.06
28.98
24.33
19.98
15.71
11.34
6.82
2.29
-2.04
-6.00
-9.56
-12.93
-16.43
-20.53
-25.59
-31.81
-39.03
-46.78
-54.21
-60.21
-63.57
-63.27
-58.77
-50.08
-37.91
-23.42
-8.05
6.87
20.25
31.33
39.66
44.95
47.19
46.58
43.67
39.21
34.10
29.13
24.78
21.23
18.34
15.82
13.40
10.94
8.49
6.14
4.04
2.15
0.26
-2.07
-5.43
-10.32
-16.92
-24.85
-33.19
-40.55
-45.53
-46.98
-44.34
-37.67
-27.58
-15.09
-1.42
12.17
24.47
34.48
41.48
45.15
45.64
43.57
39.85
35.40
30.96
26.97
23.46
20.25
17.10
13.90
10.76
7.83
5.28
3.09
0.99
-1.45
-4.72
-9.26
-15.31
-22.78
-31.24
-39.78
-47.26
-52.39
-54.08
-51.62
-44.90
-34.49
-21.44
-7.17
6.88
19.40
29.41
36.30
39.95
40.63
38.93
35.66
31.63
27.53
23.81
20.59
17.82
15.31
12.85
10.30
7.68
4.99
2.26
-0.61
-3.84
-7.82
-12.92
-19.42
-27.28
-36.04
-44.74
-52.08
-56.58
-57.10
-53.06
-44.69
-32.93
-19.18
-4.81
8.91
21.06
30.97
38.16
42.41
43.83
42.90
40.38
37.12
33.82
30.77
27.92
24.96
21.59
17.71
13.39
8.80
4.16
-0.47
-5.14
-10.03
-15.42
-21.63
-28.92
-37.33
-46.44
-55.32
-62.57
-66.65
-66.31
-61.03
-51.11
-37.57
-21.88
-5.57
9.96
23.62
34.57
42.29
46.61
47.71
46.20
42.79
38.43
33.84
29.50
25.56
21.91
18.20
14.17
9.68
4.90
0.15
-4.19
-7.91
-11.12
-14.08
-17.32
-21.36
-26.55
-33.00
-40.41
-47.93
-54.32
-58.10
-57.94
-53.13
-43.79
-30.87
-15.86
-0.38
14.21
26.93
37.20
44.62
48.96
50.15
48.44
44.42
39.02
33.29
28.06
23.79
20.45
17.63
14.81
11.64
7.90
3.72
-0.60
-4.74
-8.49
-11.89
-15.29
-19.18
-24.15
-30.55
-38.33
-46.90
-55.16
-61.56
-64.54
-62.91
-56.22
-44.87
-30.16
-13.75
2.71
17.96
31.19
42.04
50.20
55.47
57.70
57.05
54.09
49.75
45.10
40.92
37.52
34.66
31.78
28.37
24.17
19.28
14.06
8.93
4.27
0.22
-3.31
-6.65
-10.41
-15.27
-21.82
-30.32
-40.45
-51.19
-60.98
-68.00
-70.64
-67.87
-59.56
-46.43
-29.97
-12.02
5.55
21.24
34.10
43.74
50.21
53.86
55.09
54.31
51.90
48.31
43.98
39.38
34.95
30.91
27.40
24.32
21.56
18.95
16.37
13.68
10.78
7.66
4.29
0.66
-3.24
-7.55
-12.58
-18.75
-26.54
-36.19
-47.51
-59.64
-71.06
-79.81
-83.94
-81.99
-73.49
-59.00
-40.03
-18.64
3.05
23.21
40.57
54.39
64.44
70.79
73.85
74.11
72.18
68.68
64.20
59.26
54.19
49.16
44.26
39.50
34.91
30.54
26.42
22.51
18.69
14.76
10.45
5.60
0.19
-5.68
-11.81
-18.08
-24.51
-31.31
-38.84
-47.38
-56.98
-67.21
-77.07
-85.09
-89.46
-88.65
-81.71
-68.76
-50.97
-30.32
-9.08
10.76
27.85
41.51
51.60
58.33
62.02
63.07
62.05
59.63
56.55
53.40
50.54
48.02
45.68
43.30
40.75
38.05
35.32
32.67
30.04
27.17
23.74
19.37
13.86
7.29
-0.05
-7.68
-15.16
-22.21
-28.79
-35.18
-41.77
-48.94
-56.78
-64.87
-72.30
-77.77
-79.85
-77.44
-70.02
-57.78
-41.71
-23.19
-3.91
14.54
30.79
43.86
53.17
58.56
60.24
58.75
54.88
49.56
43.71
38.09
33.20
29.20
26.04
23.58
21.68
20.26
19.36
18.93
18.89
18.93
18.68
17.78
15.97
13.20
9.60
5.39
0.80
-3.98
-8.87
-13.90
-19.27
-25.29
-32.24
-40.16
-48.76
-57.21
-64.22
-68.32
-68.18
-63.04
-53.02
-39.08
-22.87
-6.26
9.00
21.66
31.02
36.92
39.58
39.47
37.26
33.80
29.89
26.28
23.43
21.48
20.24
19.44
18.87
18.48
18.34
18.55
19.04
19.51
19.45
18.36
15.85
11.82
6.46
0.18
-6.52
-13.20
-19.57
-25.63
-31.63
-37.89
-44.64
-51.81
-59.00
-65.35
-69.77
-71.12
-68.54
-61.65
-50.69
-36.59
-20.75
-4.71
10.12
22.64
32.22
38.63
42.00
42.71
41.29
38.39
34.58
30.42
26.31
22.50
19.18
16.39
14.15
12.36
10.81
9.19
7.16
4.44
0.90
-3.30
-7.90
-12.56
-17.12
-21.66
-26.46
-31.85
-38.07
-45.03
-52.33
-59.20
-64.70
-67.83
-67.63
-63.45
-55.05
-42.87
-28.02
-12.12
3.08
16.07
25.93
32.40
35.72
36.39
34.98
31.96
27.81
23.02
18.15
13.68
9.90
6.85
4.37
2.22
0.23
-1.64
-3.41
-5.05
-6.58
-8.04
-9.57
-11.39
-13.73
-16.94
-21.34
-27.15
-34.30
-42.26
-50.03
-56.32
-59.73
-59.21
-54.31
-45.25
-32.85
-18.38
-3.24
11.26
24.09
34.52
42.12
46.80
48.72
48.29
46.12
42.87
39.17
35.53
32.20
29.18
26.29
23.28
19.88
16.01
11.70
7.07
2.29
-2.56
-7.44
-12.44
-17.77
-23.72
-30.60
-38.58
-47.55
-56.94
-65.68
-72.33
-75.40
-73.74
-66.91
-55.30
-40.06
-22.80
-5.26
11.02
24.96
35.90
43.63
48.25
50.10
49.58
47.21
43.60
39.28
34.77
30.49
26.60
23.09
19.76
16.38
12.77
8.86
4.76
0.63
-3.38
-7.26
-11.14
-15.28
-20.00
-25.63
-32.34
-40.14
-48.69
-57.36
-65.06
-70.50
-72.35
-69.66
-62.06
-49.86
-34.05
-16.08
2.39
19.78
34.79
46.52
54.55
58.92
60.07
58.66
55.47
51.22
46.50
41.79
37.40
33.50
30.16
27.35
24.93
22.71
20.48
18.04
15.26
12.13
8.76
5.25
1.63
-2.22
-6.53
-11.62
-17.83
-25.33
-34.17
-44.04
-54.29
-63.91
-71.49
-75.46
-74.47
-67.79
-55.66
-39.32
-20.71
-1.86
15.47
30.14
41.64
49.88
55.02
57.33
57.16
55.02
51.48
47.17
42.64
38.25
34.17
30.43
27.05
24.06
21.42
19.08
16.83
14.45
11.76
8.69
5.34
1.89
-1.52
-4.92
-8.57
-12.91
-18.41
-25.33
-33.59
-42.63
-51.33
-58.20
-61.71
-60.63
-54.46
-43.48
-28.83
-12.12
4.83
20.38
33.30
42.83
48.76
51.30
50.98
48.64
45.12
41.20
37.39
33.97
30.94
28.25
25.78
23.47
21.30
19.22
17.12
14.93
12.53
9.80
6.70
3.21
-0.66
-4.91
-9.56
-14.63
-20.30
-26.68
-33.98
-42.20
-51.10
-59.98
-67.75
-72.98
-74.27
-70.67
-62.00
-48.85
-32.52
-14.69
3.00
19.10
32.55
42.73
49.51
53.10
54.07
53.06
50.68
47.43
43.68
39.73
35.89
32.46
29.71
27.77
26.58
25.95
25.59
25.12
24.21
22.53
19.84
16.08
11.37
5.99
0.28
-5.52
-11.37
-17.50
-24.24
-31.89
-40.43
-49.32
-57.49
-63.52
-65.94
-63.67
-56.35
-44.55
-29.56
-13.12
3.05
17.54
29.45
38.30
44.02
46.80
47.00
45.11
41.69
37.29
32.36
27.28
22.38
17.97
14.29
11.48
9.50
8.14
7.11
6.06
4.80
3.20
1.27
-1.01
-3.68
-6.88
-10.78
-15.53
-21.26
-27.96
-35.45
-43.38
-51.09
-57.65
-61.97
-63.07
-60.20
-53.25
-42.67
-29.57
-15.36
-1.51
10.83
21.00
28.70
33.90
36.67
37.14
35.51
32.23
27.99
23.54
19.56
16.41
14.14
12.56
11.41
10.46
9.62
8.82
8.00
7.04
5.76
3.96
1.49
-1.81
-6.01
-11.25
-17.60
-25.08
-33.52
-42.38
-50.72
-57.25
-60.59
-59.67
-53.99
-43.84
-30.24
-14.70
1.18
15.95
28.53
38.28
44.88
48.31
48.79
46.69
42.63
37.31
31.49
25.79
20.62
16.12
12.23
8.68
5.17
1.38
-2.84
-7.49
-12.32
-16.94
-20.96
-24.25
-27.01
-29.79
-33.26
-37.99
-44.08
-51.10
-58.06
-63.67
-66.65
-66.00
-61.27
-52.54
-40.45
-26.06
-10.66
4.40
17.90
28.87
36.76
41.39
43.05
42.31
39.87
36.51
32.84
29.30
26.07
23.17
20.43
17.66
14.68
11.47
8.06
4.61
1.23
-2.02
-5.21
-8.63
-12.68
-17.90
-24.69
-33.15
-42.77
-52.45
-60.58
-65.41
-65.61
-60.59
-50.69
-37.05
-21.28
-5.02
10.33
23.80
34.78
42.96
48.29
50.82
50.76
48.52
44.76
40.26
35.78
31.89
28.78
26.30
24.03
21.50
18.47
14.93
11.13
7.27
3.48
-0.34
-4.50
-9.33
-15.20
-22.32
-30.76
-40.23
-50.07
-59.09
-65.81
-68.66
-66.35
-58.40
-45.28
-28.35
-9.52
9.20
26.13
40.11
50.58
57.43
60.87
61.33
59.36
55.63
50.81
45.56
40.46
35.86
32.00
28.85
26.24
23.94
21.73
19.44
16.98
14.31
11.33
7.91
3.80
-1.23
-7.38
-14.84
-23.64
-33.69
-44.65
-55.88
-66.28
-74.41
-78.67
-77.77
-71.05
-58.83
-42.31
-23.45
-4.30
13.38
28.37
40.08
48.45
53.65
56.04
56.10
54.44
51.78
48.78
46.00
43.74
42.11
41.01
40.30
39.80
39.25
38.40
36.92
34.60
31.27
27.00
21.86
15.96
9.40
2.12
-5.96
-14.97
-25.06
-36.27
-48.31
-60.49
-71.53
-79.74
-83.38
-81.14
-72.60
-58.36
-39.94
-19.41
1.10
19.81
35.52
47.55
55.74
60.25
61.54
60.22
57.01
52.61
47.65
42.66
37.94
33.73
30.06
26.95
24.40
22.36
20.70
19.30
17.93
16.28
14.10
11.20
7.55
3.29
-1.31
-6.00
-10.66
-15.49
-20.92
-27.41
-35.29
-44.39
-53.82
-62.08
-67.33
-67.98
-63.13
-52.97
-38.56
-21.67
-4.18
12.26
26.47
37.75
45.74
50.43
52.11
51.34
48.91
45.66
42.39
39.55
37.26
35.36
33.60
31.79
29.94
28.20
26.75
25.66
24.75
23.63
21.86
19.08
15.14
10.17
4.48
-1.51
-7.49
-13.37
-19.33
-25.82
-33.29
-42.00
-51.70
-61.57
-70.32
-76.43
-78.52
-75.64
-67.54
-54.79
-38.56
-20.49
-2.26
14.61
29.00
40.28
48.23
52.94
54.71
53.99
51.39
47.58
43.31
39.19
35.64
32.80
30.60
28.96
27.79
27.11
26.95
27.22
27.61
27.60
26.60
24.17
20.20
14.85
8.52
1.62
-5.55
-12.90
-20.49
-28.55
-37.25
-46.66
-56.59
-66.39
-75.03
-81.10
-83.23
-80.40
-72.28
-59.35
-42.79
-24.25
-5.37
12.34
27.75
40.07
48.86
53.98
55.60
54.23
50.59
45.58
40.07
34.80
30.20
26.45
23.46
21.09
19.21
17.75
16.65
15.79
14.94
13.78
11.97
9.29
5.70
1.38
-3.32
-8.06
-12.60
-16.86
-20.97
-25.15
-29.67
-34.77
-40.48
-46.50
-52.14
-56.39
-58.08
-56.21
-50.31
-40.56
-27.82
-13.36
1.47
15.48
27.71
37.51
44.38
48.05
48.56
46.35
42.19
37.03
31.72
26.91
22.86
19.63
17.14
15.33
14.16
13.58
13.43
13.44
13.27
12.59
11.12
8.75
5.47
1.41
-3.24
-8.30
-13.55
-18.90
-24.38
-30.19
-36.57
-43.70
-51.52
-59.63
-67.19
-73.08
-76.12
-75.31
-70.09
-60.45
-47.03
-30.97
-13.76
3.00
17.92
29.98
38.66
43.88
45.98
45.47
43.03
39.34
35.03
30.63
26.49
22.84
19.73
17.13
15.02
13.34
12.08
11.13
10.33
9.41
8.13
6.32
3.91
0.94
-2.43
-6.09
-9.98
-14.17
-18.82
-24.16
-30.40
-37.54
-45.32
-53.02
-59.62
-63.93
-64.82
-61.60
-54.20
-43.20
-29.72
-15.18
-0.96
11.78
22.29
30.21
35.53
38.51
39.54
39.09
37.61
35.54
33.21
30.91
28.80
26.87
25.07
23.31
21.51
19.66
17.75
15.75
13.52
10.87
7.55
3.45
-1.41
-6.87
-12.68
-18.60
-24.51
-30.39
-36.30
-42.33
-48.43
-54.31
-59.38
-62.77
-63.56
-60.96
-54.60
-44.66
-31.87
-17.36
-2.50
11.35
23.12
32.09
38.05
41.21
42.10
41.32
39.51
37.19
34.72
32.40
30.31
28.49
26.83
25.10
23.06
20.54
17.49
13.92
9.94
5.63
1.02
-3.85
-9.00
-14.36
-19.91
-25.72
-31.87
-38.36
-45.12
-51.77
-57.66
-61.99
-63.82
-62.38
-57.25
-48.49
-36.66
-22.89
-8.52
5.08
16.78
25.95
32.29
35.93
37.13
36.32
33.88
30.31
26.12
21.79
17.70
14.06
10.89
8.09
5.55
3.14
0.78
-1.58
-4.03
-6.63
-9.48
-12.61
-16.05
-19.92
-24.40
-29.69
-35.88
-42.84
-50.04
-56.54
-61.11
-62.59
-60.11
-53.41
-42.83
-29.40
-14.50
0.42
14.13
25.65
34.43
40.22
43.05
43.20
41.15
37.60
33.28
28.88
24.84
21.37
18.42
15.74
13.00
9.95
6.44
2.51
-1.76
-6.17
-10.58
-14.89
-19.14
-23.48
-28.16
-33.44
-39.49
-46.29
-53.40
-59.94
-64.70
-66.46
-64.24
-57.72
-47.27
-33.93
-19.13
-4.38
9.06
20.34
29.02
35.06
38.58
39.82
39.14
36.99
33.99
30.78
27.94
25.85
24.56
23.79
23.13
22.10
20.44
18.04
15.00
11.39
7.35
2.88
-2.03
-7.40
-13.31
-19.94
-27.54
-36.28
-46.03
-56.09
-65.15
-71.55
-73.73
-70.67
-62.29
-49.47
-33.75
-16.90
-0.49
14.32
26.89
36.94
44.39
49.30
51.77
52.06
50.55
47.75
44.30
40.77
37.62
34.97
32.66
30.34
27.59
24.18
20.08
15.51
10.72
5.93
1.23
-3.43
-8.21
-13.31
-18.99
-25.58
-33.34
-42.36
-52.25
-62.02
-70.12
-74.77
-74.44
-68.29
-56.55
-40.33
-21.45
-1.91
16.53
32.60
45.55
55.10
61.25
64.21
64.41
62.34
58.64
53.99
49.05
44.38
40.38
37.19
34.73
32.70
30.67
28.28
25.30
21.62
17.28
12.37
6.94
1.10
-5.11
-11.60
-18.40
-25.63
-33.57
-42.44
-52.13
-62.00
-70.82
-76.96
-78.85
-75.35
-66.20
-52.11
-34.62
-15.64
2.85
19.34
32.94
43.29
50.46
54.72
56.40
55.93
53.81
50.66
47.16
43.89
41.19
39.13
37.60
36.45
35.50
34.66
33.75
32.53
30.72
28.09
24.63
20.46
15.79
10.84
5.54
-0.36
-7.25
-15.48
-25.17
-35.93
-46.88
-56.69
-63.83
-66.87
-64.90
-57.70
-45.92
-30.85
-14.12
2.64
18.11
31.40
42.03
49.82
54.80
57.17
57.20
55.31
52.02
47.88
43.41
39.03
34.99
31.49
28.58
26.28
24.48
22.92
21.26
19.16
16.40
12.92
8.74
4.00
-1.22
-6.93
-13.20
-20.20
-27.97
-36.38
-44.94
-52.77
-58.66
-61.33
-59.78
-53.66
-43.41
-30.10
-15.20
-0.25
13.47
24.97
33.62
39.10
41.40
40.86
38.10
33.97
29.33
24.90
21.20
18.45
16.59
15.48
14.84
14.37
13.81
12.89
11.43
9.32
6.53
3.09
-0.99
-5.73
-11.27
-17.78
-25.40
-34.02
-43.26
-52.27
-59.88
-64.75
-65.66
-61.82
-53.07
-39.98
-23.82
-6.23
11.04
26.50
39.10
48.28
53.80
55.77
54.46
50.39
44.34
37.21
29.97
23.43
18.04
13.88
10.71
8.17
5.88
3.58
1.15
-1.50
-4.33
-7.30
-10.34
-13.46
-16.80
-20.70
-25.61
-31.92
-39.73
-48.63
-57.68
-65.49
-70.49
-71.28
-67.00
-57.48
-43.40
-26.13
-7.51
10.56
26.55
39.49
49.09
55.52
59.18
60.47
59.79
57.49
53.91
49.48
44.63
39.73
34.97
30.45
26.14
22.05
18.21
14.61
11.17
7.73
4.11
0.16
-4.23
-9.08
-14.38
-20.24
-26.83
-34.31
-42.81
-52.05
-61.32
-69.44
-74.95
-76.42
-72.89
-64.09
-50.61
-33.78
-15.35
2.86
19.31
32.97
43.29
50.18
53.90
54.87
53.61
50.63
46.49
41.69
36.73
32.02
27.89
24.49
21.74
19.43
17.30
15.05
12.54
9.72
6.63
3.33
-0.19
-3.98
-8.16
-12.84
-18.21
-24.52
-32.09
-41.08
-51.34
-62.15
-72.17
-79.63
-82.78
-80.45
-72.33
-59.07
-42.13
-23.37
-4.54
12.91
28.03
40.30
49.57
55.88
59.43
60.48
59.46
56.86
53.23
49.07
44.76
40.48
36.31
32.28
28.42
24.83
21.58
18.59
15.64
12.42
8.68
4.31
-0.62
-5.85
-11.19
-16.59
-22.23
-28.48
-35.72
-44.13
-53.50
-63.08
-71.61
-77.57
-79.44
-76.18
-67.49
-53.91
-36.77
-17.80
1.18
18.54
33.11
44.19
51.58
55.46
56.35
55.02
52.22
48.62
44.67
40.68
36.83
33.24
30.02
27.29
25.09
23.34
21.85
20.30
18.40
15.88
12.64
8.68
4.05
-1.16
-6.88
-13.02
-19.60
-26.65
-34.27
-42.59
-51.55
-60.69
-69.09
-75.37
-77.95
-75.56
-67.66
-54.67
-37.85
-18.98
0.05
17.58
32.44
43.96
51.85
56.16
57.23
55.61
52.01
47.17
41.78
36.42
31.45
27.13
23.58
20.77
18.57
16.81
15.29
13.80
12.19
10.35
8.13
5.43
2.16
-1.74
-6.26
-11.36
-17.06
-23.53
-30.94
-39.41
-48.63
-57.80
-65.64
-70.64
-71.37
-67.03
-57.62
-43.95
-27.56
-10.24
6.28
20.69
32.21
40.56
45.84
48.35
48.54
46.91
44.03
40.49
36.82
33.36
30.29
27.64
25.41
23.53
21.91
20.43
18.84
16.84
14.17
10.72
6.52
1.78
-3.25
-8.47
-13.87
-19.67
-26.18
-33.70
-42.23
-51.35
-60.13
-67.23
-71.18
-70.73
-65.24
-54.87
-40.63
-24.06
-6.92
9.19
23.08
34.06
41.82
46.43
48.16
47.42
44.73
40.78
36.26
31.84
28.06
25.22
23.30
22.07
21.19
20.27
18.99
17.12
14.51
11.08
6.85
1.91
-3.65
-9.77
-16.51
-24.00
-32.35
-41.50
-51.12
-60.53
-68.70
-74.42
-76.45
-73.83
-66.09
-53.51
-37.09
-18.44
0.56
18.12
32.92
44.11
51.40
54.89
54.97
52.20
47.29
41.04
34.27
27.72
21.90
17.03
13.09
9.82
6.92
4.13
1.28
-1.70
-4.73
-7.65
-10.47
-13.29
-16.45
-20.38
-25.57
-32.38
-40.90
-50.78
-61.21
-70.88
-78.21
-81.62
-79.85
-72.33
-59.39
-42.20
-22.60
-2.61
15.97
31.85
44.40
53.45
59.16
61.83
61.80
59.44
55.28
49.97
44.18
38.50
33.23
28.36
23.70
19.04
14.33
9.69
5.40
1.75
-1.25
-3.77
-6.32
-9.50
-13.93
-20.07
-28.16
-38.05
-49.17
-60.45
-70.43
-77.48
-80.03
-77.09
-68.35
-54.42
-36.73
-17.16
2.34
20.12
35.07
46.73
55.03
60.14
62.36
62.01
59.49
55.33
50.18
44.65
39.20
34.09
29.33
24.86
20.56
16.41
12.37
8.46
4.65
0.89
-2.81
-6.54
-10.40
-14.72
-19.93
-26.49
-34.64
-44.15
-54.18
-63.36
-70.01
-72.48
-69.68
-61.29
-47.95
-31.11
-12.74
5.17
21.02
33.84
43.25
49.37
52.57
53.34
52.18
49.62
46.18
42.37
38.62
35.19
32.24
29.67
27.28
24.73
21.77
18.20
14.02
9.41
4.62
-0.19
-5.02
-10.07
-15.64
-22.09
-29.73
-38.59
-48.33
-58.15
-66.77
-72.61
-74.18
-70.46
-61.19
-47.05
-29.51
-10.48
8.07
24.49
37.69
47.10
52.67
54.64
53.45
49.69
44.11
37.57
31.03
25.38
21.23
18.75
17.69
17.52
17.61
17.48
16.83
15.61
13.90
11.78
9.31
6.38
2.76
-1.85
-7.73
-15.10
-23.95
-33.84
-43.87
-52.70
-58.70
-60.36
-56.67
-47.50
-33.64
-16.68
1.38
18.60
33.41
44.85
52.49
56.31
56.66
53.98
48.91
42.14
34.49
26.80
19.88
14.28
10.29
7.79
6.35
5.45
4.61
3.54
2.16
0.54
-1.36
-3.64
-6.62
-10.64
-16.03
-23.00
-31.58
-41.45
-51.92
-61.85
-69.75
-73.99
-73.29
-67.06
-55.56
-39.95
-21.89
-3.31
14.13
29.11
40.84
48.92
53.31
54.24
52.20
47.83
41.90
35.33
28.93
23.36
18.93
15.61
13.05
10.77
8.44
5.96
3.44
1.07
-1.09
-3.21
-5.77
-9.29
-14.27
-20.98
-29.40
-39.21
-49.80
-60.11
-68.74
-74.08
-74.66
-69.64
-59.06
-43.95
-25.99
-7.15
10.84
26.70
39.62
49.22
55.32
57.99
57.54
54.48
49.59
43.78
37.90
32.64
28.31
24.84
21.86
18.89
15.59
11.87
7.94
4.13
0.67
-2.56
-5.97
-10.18
-15.78
-23.15
-32.24
-42.58
-53.32
-63.25
-70.92
-74.80
-73.66
-66.82
-54.52
-37.88
-18.74
0.81
18.91
34.30
46.33
54.84
59.95
61.87
60.90
57.52
52.41
46.42
40.38
34.88
30.25
26.44
23.19
20.13
16.98
13.61
10.08
6.61
3.43
0.65
-1.92
-4.81
-8.77
-14.55
-22.69
-33.07
-44.85
-56.57
-66.28
-72.01
-72.32
-66.53
-55.03
-39.13
-20.68
-1.76
15.83
30.80
42.42
50.53
55.22
56.77
55.62
52.35
47.69
42.41
37.28
32.87
29.35
26.60
24.24
21.81
18.95
15.46
11.34
6.76
1.95
-2.91
-7.80
-12.92
-18.63
-25.35
-33.43
-42.88
-53.30
-63.70
-72.66
-78.46
-79.43
-74.45
-63.27
-46.66
-26.33
-4.54
16.41
34.64
49.09
59.36
65.68
68.61
68.75
66.70
62.93
57.97
52.36
46.62
41.24
36.51
32.44
28.92
25.62
22.21
18.41
14.11
9.32
4.19
-1.13
-6.55
-12.06
-17.84
-24.18
-31.38
-39.75
-49.36
-59.98
-70.84
-80.56
-87.43
-89.65
-85.93
-75.85
-60.07
-40.26
-18.59
2.72
21.93
37.98
50.38
59.03
64.14
65.98
64.98
61.72
56.94
51.44
45.98
41.10
37.07
33.82
31.01
28.22
25.12
21.52
17.43
12.94
8.10
2.88
-2.80
-9.05
-15.88
-23.32
-31.37
-40.14
-49.65
-59.65
-69.42
-77.74
-83.08
-83.92
-79.15
-68.52
-52.67
-33.08
-11.72
9.28
28.09
43.38
54.49
61.29
64.05
63.31
59.75
54.08
47.16
39.80
32.71
26.42
21.15
16.82
13.23
10.10
7.23
4.45
1.72
-0.99
-3.70
-6.44
-9.25
-12.25
-15.57
-19.52
-24.41
-30.52
-37.98
-46.60
-55.73
-64.25
-70.67
-73.43
-71.22
-63.40
-50.23
-32.87
-13.15
6.83
25.11
40.20
51.32
58.26
61.31
61.00
58.02
53.06
46.87
40.21
33.84
28.36
24.10
21.05
18.95
17.37
15.96
14.48
12.81
10.95
8.87
6.39
3.34
-0.49
-5.25
-11.04
-17.91
-25.89
-34.95
-44.87
-55.03
-64.27
-71.05
-73.78
-71.22
-62.95
-49.54
-32.40
-13.46
5.29
22.15
35.85
45.65
51.31
53.02
51.31
47.01
41.08
34.47
28.07
22.52
18.18
15.21
13.52
12.76
12.50
12.25
11.58
10.21
8.07
5.21
1.72
-2.40
-7.27
-13.09
-20.06
-28.23
-37.37
-47.02
-56.33
-64.14
-69.13
-70.04
-66.02
-56.89
-43.28
-26.53
-8.44
9.18
24.71
37.00
45.44
49.88
50.60
48.13
43.26
36.90
29.98
23.36
17.66
13.20
9.98
7.69
5.89
4.22
2.50
0.75
-0.94
-2.50
-4.00
-5.74
-8.15
-11.70
-16.77
-23.56
-31.96
-41.42
-50.95
-59.18
-64.65
-66.02
-62.49
-54.02
-41.35
-25.83
-9.21
6.81
20.74
31.57
38.77
42.27
42.32
39.43
34.34
27.91
21.07
14.69
9.36
5.34
2.52
0.51
-1.10
-2.62
-4.19
-5.76
-7.19
-8.48
-9.80
-11.57
-14.31
-18.56
-24.65
-32.57
-41.77
-51.13
-59.19
-64.35
-65.23
-61.04
-51.69
-37.90
-20.97
-2.61
15.46
31.68
44.96
54.55
60.16
61.83
59.97
55.26
48.69
41.31
34.07
27.65
22.27
17.73
13.66
9.76
5.91
2.21
-1.14
-4.03
-6.58
-9.18
-12.36
-16.69
-22.60
-30.29
-39.53
-49.59
-59.22
-66.87
-70.88
-70.01
-63.73
-52.45
-37.35
-20.07
-2.38
14.26
28.68
40.19
48.40
53.24
54.88
53.76
50.58
46.20
41.52
37.17
33.54
30.58
27.95
25.14
21.79
17.79
13.32
8.77
4.51
0.69
-2.85
-6.56
-11.08
-17.03
-24.89
-34.70
-45.98
-57.59
-67.91
-75.07
-77.39
-73.81
-64.23
-49.59
-31.57
-12.26
6.46
23.14
36.92
47.44
54.70
58.86
60.15
58.90
55.62
51.00
45.76
40.64
36.09
32.27
29.03
26.02
22.90
19.47
15.73
11.84
7.98
4.16
0.19
-4.34
-9.98
-17.27
-26.51
-37.68
-50.26
-63.14
-74.72
-83.11
-86.57
-83.80
-74.39
-58.95
-38.98
-16.57
6.05
26.96
44.77
58.74
68.65
74.64
77.01
76.16
72.60
66.97
60.06
52.69
45.64
39.45
34.32
30.13
26.49
22.98
19.25
15.18
10.83
6.40
2.01
-2.34
-6.77
-11.51
-16.84
-23.04
-30.35
-38.91
-48.58
-58.82
-68.52
-75.98
-79.33
-76.96
-68.08
-53.07
-33.50
-11.71
9.82
28.98
44.42
55.61
62.60
65.83
65.91
63.58
59.58
54.68
49.54
44.68
40.36
36.74
33.84
31.59
29.88
28.53
27.28
25.81
23.86
21.29
18.06
14.22
9.75
4.65
-1.14
-7.74
-15.24
-23.73
-33.33
-44.01
-55.40
-66.62
-76.28
-82.69
-84.23
-79.97
-69.86
-54.87
-36.73
-17.42
1.19
17.64
30.99
40.77
46.89
49.63
49.48
47.13
43.43
39.20
35.10
31.60
28.87
26.89
25.48
24.49
23.77
23.20
22.58
21.69
20.25
18.02
14.88
10.85
6.04
0.59
-5.46
-12.22
-19.89
-28.67
-38.55
-49.18
-59.71
-68.91
-75.26
-77.34
-74.11
-65.25
-51.36
-33.84
-14.62
4.31
21.22
35.08
45.44
52.30
55.92
56.64
54.84
50.99
45.74
39.80
33.91
28.65
24.30
20.81
17.92
15.35
12.87
10.39
7.89
5.34
2.70
-0.18
-3.40
-7.08
-11.22
-15.88
-21.18
-27.29
-34.45
-42.64
-51.43
-59.81
-66.42
-69.71
-68.41
-61.88
-50.36
-34.85
-16.89
1.76
19.45
34.82
46.93
55.24
59.70
60.61
58.56
54.44
49.14
43.52
38.24
33.66
29.82
26.60
23.75
21.05
18.33
15.48
12.38
8.91
4.96
0.52
-4.33
-9.44
-14.74
-20.32
-26.51
-33.66
-41.89
-50.89
-59.80
-67.32
-72.05
-72.81
-68.88
-60.28
-47.64
-32.10
-15.13
1.72
17.03
29.71
39.08
44.96
47.56
47.36
45.03
41.25
36.67
31.90
27.36
23.37
20.09
17.47
15.37
13.49
11.53
9.26
6.56
3.43
-0.07
-3.86
-7.99
-12.62
-18.03
-24.47
-32.03
-40.44
-49.09
-56.94
-62.76
-65.36
-63.83
-57.83
-47.63
-34.16
-18.71
-2.82
12.05
24.61
33.96
39.68
41.80
40.75
37.32
32.42
27.00
21.77
17.20
13.47
10.50
8.07
5.89
3.64
1.09
-1.85
-5.07
-8.42
-11.70
-14.86
-18.06
-21.61
-25.89
-31.23
-37.71
-44.99
-52.34
-58.66
-62.68
-63.29
-59.72
-51.85
-40.24
-25.97
-10.43
5.01
19.12
31.01
40.08
46.05
48.96
49.19
47.36
44.22
40.49
36.83
33.64
31.08
29.05
27.29
25.45
23.20
20.39
17.03
13.24
9.18
4.81
0.01
-5.50
-11.95
-19.46
-27.83
-36.62
-45.05
-52.20
-57.06
-58.81
-56.93
-51.35
-42.45
-30.97
-17.88
-4.31
8.57
19.70
28.20
33.49
35.45
34.42
31.13
26.52
21.46
16.59
12.22
8.39
4.98
1.93
-0.77
-3.04
-4.93
-6.55
-8.18
-10.22
-13.05
-17.05
-22.44
-29.28
-37.22
-45.46
-52.77
-57.66
-58.81
-55.39
-47.35
-35.37
-20.72
-4.91
10.55
24.36
35.47
43.21
47.28
47.84
45.48
41.12
35.75
30.27
25.29
21.08
17.59
14.71
12.28
10.21
8.48
7.02
5.66
4.11
2.00
-1.08
-5.47
-11.41
-18.84
-27.29
-35.87
-43.29
-48.08
-48.95
-45.10
-36.55
-24.07
-9.12
6.60
21.44
34.19
44.11
50.99
55.05
56.68
56.31
54.34
51.05
46.72
41.57
35.90
29.97
24.02
18.26
12.94
8.29
4.61
2.00
0.39
-0.73
-2.18
-4.86
-9.49
-16.20
-24.39
-32.78
-39.73
-43.62
-43.27
-38.26
-28.92
-16.34
-2.07
12.18
24.87
34.83
41.32
44.10
43.31
39.43
33.22
25.57
17.36
9.37
2.04
-4.39
-9.91
-14.59
-18.53
-21.80
-24.49
-26.73
-28.65
-30.46
-32.45
-34.97
-38.43
-43.18
-49.31
-56.45
-63.66
-69.56
-72.49
-71.09
-64.55
-53.04
-37.60
-19.86
-1.67
15.39
30.17
41.99
50.45
55.35
56.75
55.02
50.90
45.49
39.93
35.08
31.22
28.13
25.33
22.34
18.98
15.35
11.73
8.26
4.87
1.32
-2.85
-8.10
-14.77
-22.99
-32.50
-42.59
-52.00
-59.11
-62.28
-60.26
-52.57
-39.73
-23.11
-4.62
13.76
30.37
43.98
53.97
60.11
62.56
61.83
58.67
54.11
49.07
44.32
40.22
36.73
33.50
30.21
26.71
23.08
19.58
16.39
13.51
10.62
7.23
2.72
-3.47
-11.75
-22.27
-34.71
-48.23
-61.43
-72.49
-79.52
-81.07
-76.41
-65.84
-50.50
-32.09
-12.47
6.73
24.20
39.02
50.64
58.75
63.36
64.76
63.53
60.42
56.21
51.54
46.81
42.13
37.45
32.67
27.72
22.60
17.39
12.14
6.91
1.66
-3.72
-9.35
-15.47
-22.35
-30.34
-39.67
-50.22
-61.38
-71.85
-79.83
-83.45
-81.20
-72.49
-57.88
-38.94
-17.86
3.11
22.16
38.20
50.73
59.75
65.41
67.97
67.72
65.14
60.86
55.62
50.08
44.72
39.78
35.18
30.81
26.52
22.28
18.16
14.25
10.66
7.40
4.35
1.23
-2.30
-6.71
-12.48
-20.01
-29.43
-40.42
-52.06
-62.78
-70.66
-73.79
-70.79
-61.23
-45.77
-26.00
-4.10
17.60
37.11
52.99
64.40
71.13
73.45
71.99
67.65
61.41
54.29
47.18
40.82
35.66
31.89
29.40
27.85
26.77
25.68
24.22
22.24
19.70
16.64
13.04
8.78
3.59
-2.87
-10.90
-20.65
-31.99
-44.32
-56.63
-67.38
-74.90
-77.62
-74.48
-65.24
-50.60
-32.07
-11.65
8.59
26.87
41.97
53.26
60.65
64.32
64.68
62.19
57.45
51.19
44.25
37.46
31.51
26.69
22.93
19.86
17.05
14.19
11.20
8.11
4.94
1.64
-2.08
-6.55
-12.04
-18.78
-26.85
-36.23
-46.74
-57.94
-69.01
-78.71
-85.45
-87.69
-84.32
-75.02
-60.40
-41.89
-21.38
-0.85
18.02
33.98
46.22
54.31
58.19
58.07
54.54
48.47
40.84
32.76
25.15
18.70
13.71
10.10
7.51
5.36
3.22
0.80
-1.89
-4.62
-7.11
-9.20
-11.03
-12.98
-15.64
-19.66
-25.54
-33.40
-42.84
-52.86
-61.99
-68.52
-70.84
-67.87
-59.37
-46.01
-29.29
-11.18
6.26
21.42
33.29
41.47
46.12
47.66
46.63
43.58
39.10
33.82
28.37
23.34
19.16
15.91
13.45
11.42
9.40
7.15
4.55
1.75
-1.09
-3.94
-6.87
-10.16
-14.12
-19.07
-25.16
-32.33
-40.25
-48.23
-55.29
-60.13
-61.52
-58.48
-50.57
-38.11
-22.19
-4.43
13.38
29.53
42.72
52.18
57.60
59.06
56.98
51.98
44.87
36.58
28.00
19.94
12.90
7.11
2.51
-1.16
-4.15
-6.66
-8.80
-10.67
-12.37
-14.12
-16.16
-18.72
-22.03
-26.25
-31.51
-37.86
-45.22
-53.06
-60.40
-65.93
-68.19
-66.01
-58.88
-47.09
-31.71
-14.28
3.48
20.11
34.36
45.43
52.78
56.25
55.97
52.46
46.53
39.11
31.17
23.50
16.61
10.71
5.73
1.54
-2.05
-5.18
-7.88
-10.17
-12.13
-13.91
-15.83
-18.28
-21.67
-26.19
-31.84
-38.27
-44.75
-50.37
-54.04
-54.76
-51.85
-45.01
-34.52
-21.18
-6.26
8.72
22.25
33.04
40.29
43.74
43.58
40.38
34.96
28.19
20.88
13.75
7.32
1.84
-2.70
-6.43
-9.59
-12.33
-14.72
-16.74
-18.44
-19.89
-21.29
-22.99
-25.34
-28.72
-33.25
-38.68
-44.34
-49.11
-51.70
-50.89
-45.94
-36.74
-23.91
-8.68
7.39
22.65
35.56
44.98
50.16
50.97
47.73
41.26
32.68
23.24
14.05
5.83
-1.13
-6.90
-11.81
-16.09
-19.83
-22.93
-25.20
-26.54
-27.10
-27.29
-27.82
-29.37
-32.48
-37.27
-43.34
-49.72
-55.09
-57.97
-57.11
-51.82
-42.11
-28.74
-13.09
3.17
18.35
30.98
40.10
45.24
46.45
44.21
39.37
32.93
25.90
19.10
13.02
7.76
3.21
-0.92
-4.81
-8.50
-11.91
-14.92
-17.55
-20.00
-22.74
-26.38
-31.58
-38.57
-47.10
-56.20
-64.32
-69.66
-70.60
-66.15
-56.29
-41.92
-24.58
-6.16
11.54
27.06
39.34
47.82
52.34
53.10
50.56
45.54
38.93
31.71
24.67
18.40
13.07
8.60
4.72
1.14
-2.30
-5.65
-8.86
-11.95
-15.14
-18.95
-23.98
-30.77
-39.46
-49.57
-59.90
-68.71
-74.12
-74.57
-69.22
-58.19
-42.50
-23.83
-4.09
14.90
31.68
45.15
54.66
59.94
61.09
58.60
53.17
45.83
37.64
29.56
22.25
16.03
10.83
6.43
2.60
-0.74
-3.51
-5.58
-7.04
-8.33
-10.24
-13.77
-19.71
-28.37
-39.20
-50.83
-61.33
-68.58
-70.85
-67.14
-57.53
-42.97
-25.08
-5.78
13.04
29.89
43.61
53.53
59.42
61.53
60.50
57.33
53.08
48.71
44.83
41.58
38.75
35.89
32.55
28.53
23.88
18.88
13.88
9.00
4.24
-0.71
-6.36
-13.20
-21.51
-31.19
-41.55
-51.25
-58.57
-61.73
-59.34
-50.90
-36.91
-18.77
1.67
22.41
41.70
58.18
70.75
78.69
81.69
79.97
74.38
66.21
56.95
47.86
39.76
32.89
27.12
22.11
17.57
13.42
9.67
6.44
3.82
1.69
-0.26
-2.60
-6.11
-11.56
-19.36
-29.43
-40.76
-51.60
-59.70
-62.83
-59.55
-49.52
-33.74
-14.12
7.00
27.53
45.86
60.99
72.35
79.57
82.46
81.10
76.05
68.36
59.41
50.59
42.83
36.45
31.13
26.34
21.66
17.02
12.72
9.19
6.73
5.23
4.15
2.69
-0.04
-4.73
-11.69
-20.72
-31.19
-41.95
-51.48
-58.04
-60.00
-56.24
-46.52
-31.59
-13.13
6.76
25.96
42.80
56.21
65.65
70.95
72.23
69.83
64.43
56.98
48.62
40.45
33.24
27.29
22.45
18.27
14.28
10.20
6.09
2.18
-1.29
-4.34
-7.31
-10.89
-15.83
-22.72
-31.76
-42.53
-54.01
-64.67
-72.74
-76.54
-74.77
-66.98
-53.56
-35.84
-15.64
5.01
24.30
40.86
53.72
62.39
66.71
66.96
63.76
58.04
50.92
43.42
36.34
30.07
24.76
20.31
16.56
13.40
10.70
8.42
6.37
4.38
2.10
-0.93
-5.27
-11.40
-19.54
-29.31
-39.71
-49.09
-55.54
-57.36
-53.57
-44.19
-30.24
-13.43
4.17
20.64
34.41
44.51
50.43
52.24
50.41
45.80
39.45
32.42
25.63
19.69
14.84
11.02
7.98
5.37
2.93
0.48
-1.99
-4.47
-7.01
-9.74
-13.00
-17.19
-22.67
-29.52
-37.36
-45.34
-52.12
-56.17
-56.17
-51.40
-41.88
-28.51
-12.78
3.53
18.71
31.32
40.46
45.67
46.97
44.82
39.95
33.34
25.97
18.65
11.99
6.20
1.28
-3.05
-7.04
-10.88
-14.67
-18.39
-22.02
-25.55
-29.15
-33.10
-37.68
-43.04
-48.92
-54.51
-58.50
-59.43
-56.03
-47.70
-34.71
-18.23
0.02
18.05
34.10
46.90
55.66
60.20
60.77
57.91
52.39
45.11
37.01
28.90
21.42
14.92
9.41
4.71
0.53
-3.36
-7.06
-10.55
-13.80
-16.91
-20.20
-24.15
-29.16
-35.33
-42.27
-48.99
-54.10
-56.23
-54.28
-47.84
-37.26
-23.61
-8.43
6.58
19.82
30.09
36.73
39.57
38.91
35.30
29.48
22.23
14.37
6.59
-0.57
-6.72
-11.77
-15.76
-18.80
-21.00
-22.44
-23.26
-23.75
-24.38
-25.79
-28.58
-33.01
-38.76
-44.80
-49.55
-51.23
-48.46
-40.66
-28.35
-12.91
3.73
19.62
33.16
43.27
49.35
51.31
49.38
44.21
36.69
27.97
19.08
10.80
3.54
-2.62
-7.83
-12.26
-16.09
-19.35
-22.18
-24.73
-27.30
-30.28
-34.15
-39.24
-45.62
-52.76
-59.54
-64.36
-65.52
-61.65
-52.28
-37.95
-20.15
-0.86
17.90
34.37
47.31
56.09
60.50
60.79
57.63
51.88
44.56
36.59
28.69
21.28
14.52
8.49
3.19
-1.35
-5.14
-8.28
-11.06
-13.91
-17.48
-22.38
-29.07
-37.55
-47.21
-56.75
-64.45
-68.41
-67.17
-60.08
-47.54
-30.95
-12.28
6.39
23.22
36.92
46.79
52.62
54.61
53.26
49.30
43.58
37.01
30.42
24.35
19.02
14.34
10.07
6.03
2.15
-1.48
-4.80
-7.97
-11.48
-15.98
-22.18
-30.54
-40.95
-52.56
-63.86
-72.82
-77.42
-76.11
-68.23
-54.28
-35.71
-14.66
6.60
26.13
42.44
54.64
62.33
65.56
64.78
60.80
54.76
47.84
41.04
34.92
29.57
24.76
20.09
15.37
10.67
6.27
2.45
-0.75
-3.60
-6.72
-10.90
-16.95
-25.37
-36.09
-48.22
-60.09
-69.51
-74.30
-72.87
-64.74
-50.67
-32.33
-11.88
8.59
27.38
43.38
55.89
64.51
69.18
70.09
67.84
63.34
57.63
51.67
46.12
41.21
36.77
32.41
27.78
22.72
17.37
12.04
7.06
2.54
-1.71
-6.23
-11.72
-18.86
-28.03
-39.14
-51.38
-63.24
-72.67
-77.48
-76.00
-67.55
-52.82
-33.61
-12.32
8.63
27.43
42.95
54.74
62.66
66.80
67.38
64.86
60.04
54.04
48.04
42.98
39.25
36.64
34.56
32.34
29.53
26.02
22.00
17.75
13.56
9.48
5.38
0.97
-4.28
-10.93
-19.51
-30.24
-42.73
-55.86
-67.78
-76.24
-79.09
-74.93
-63.60
-46.18
-24.84
-2.23
19.24
37.76
52.30
62.48
68.37
70.32
68.85
64.69
58.77
52.12
45.72
40.31
36.17
33.17
30.88
28.80
26.56
23.97
21.02
17.83
14.54
11.23
7.78
3.96
-0.62
-6.35
-13.60
-22.50
-32.85
-43.99
-54.75
-63.58
-68.69
-68.52
-62.08
-49.39
-31.50
-10.32
11.73
32.38
49.89
63.31
72.32
77.08
77.85
74.90
68.62
59.59
48.71
37.21
26.42
17.34
10.46
5.68
2.45
0.12
-1.86
-3.81
-5.80
-7.82
-9.90
-12.08
-14.47
-17.23
-20.56
-24.68
-29.86
-36.28
-43.83
-52.00
-59.64
-65.20
-67.01
-63.71
-54.64
-40.11
-21.32
-0.28
20.65
39.31
53.98
63.74
68.63
69.23
66.59
61.71
55.35
48.00
40.08
31.97
24.24
17.40
11.83
7.60
4.56
2.34
0.58
-0.92
-2.33
-3.72
-5.25
-7.14
-9.69
-13.17
-17.84
-23.88
-31.35
-40.21
-50.18
-60.68
-70.68
-78.74
-83.22
-82.72
-76.35
-64.17
-47.29
-27.52
-7.09
11.96
28.07
40.40
48.71
53.26
54.53
53.10
49.60
44.69
39.06
33.39
28.27
24.03
20.79
18.38
16.48
14.77
12.93
10.77
8.26
5.39
2.28
-1.00
-4.42
-8.01
-11.96
-16.56
-22.16
-29.00
-37.00
-45.59
-53.71
-59.95
-62.79
-61.00
-54.10
-42.43
-27.14
-10.00
7.06
22.31
34.55
43.11
47.89
49.15
47.44
43.42
37.87
31.66
25.61
20.29
15.99
12.63
9.93
7.55
5.27
2.98
0.76
-1.37
-3.42
-5.57
-8.05
-11.09
-14.76
-19.06
-23.99
-29.61
-36.05
-43.35
-51.21
-58.76
-64.65
-67.38
-65.61
-58.80
-47.24
-32.11
-15.01
2.32
18.38
32.07
42.66
49.77
53.25
53.28
50.32
45.09
38.52
31.58
25.09
19.53
15.04
11.48
8.57
6.04
3.69
1.36
-0.98
-3.40
-5.94
-8.62
-11.48
-14.65
-18.30
-22.73
-28.19
-34.83
-42.49
-50.62
-58.21
-63.94
-66.48
-64.74
-58.20
-47.17
-32.67
-16.22
0.55
16.19
29.58
40.02
47.08
50.59
50.66
47.71
42.47
35.92
29.12
22.90
17.71
13.56
10.21
7.28
4.45
1.61
-1.26
-4.09
-6.78
-9.38
-12.04
-15.03
-18.75
-23.56
-29.75
-37.36
-46.03
-54.98
-62.97
-68.58
-70.43
-67.52
-59.51
-46.78
-30.39
-11.91
6.85
24.17
38.68
49.46
56.15
58.87
58.11
54.58
49.08
42.47
35.49
28.82
22.84
17.72
13.34
9.43
5.70
1.98
-1.69
-5.23
-8.58
-11.88
-15.48
-19.91
-25.70
-33.14
-42.20
-52.39
-62.75
-71.93
-78.43
-80.75
-77.82
-69.24
-55.51
-37.91
-18.28
1.44
19.57
34.89
46.62
54.33
57.87
57.36
53.30
46.56
38.34
29.85
22.09
15.53
10.15
5.56
1.30
-2.99
-7.40
-11.76
-15.85
-19.55
-22.96
-26.47
-30.70
-36.24
-43.45
-52.21
-61.78
-70.78
-77.49
-80.19
-77.53
-69.09
-55.40
-37.82
-18.23
1.43
19.57
35.03
47.09
55.35
59.64
60.14
57.28
51.90
45.05
37.73
30.74
24.43
18.74
13.32
7.83
2.08
-3.83
-9.60
-14.90
-19.56
-23.63
-27.43
-31.56
-36.61
-43.09
-51.16
-60.35
-69.53
-77.08
-81.16
-80.30
-73.76
-61.76
-45.47
-26.60
-7.03
11.56
27.90
41.17
50.84
56.73
58.92
57.82
54.17
48.99
43.29
37.97
33.52
29.97
27.08
24.49
21.97
19.54
17.35
15.51
13.89
12.03
9.15
4.43
-2.72
-12.45
-24.26
-36.90
-48.60
-57.36
-61.34
-59.40
-51.35
-38.01
-20.98
-2.25
16.37
33.40
47.91
59.25
67.00
70.90
70.93
67.56
61.69
54.60
47.52
41.35
36.30
32.01
27.86
23.27
18.02
12.27
6.45
0.93
-4.16
-8.98
-14.01
-19.75
-26.69
-35.06
-44.68
-54.87
-64.44
-71.72
-74.91
-72.60
-64.16
-50.08
-31.81
-11.45
8.80
27.13
42.28
53.56
60.69
63.74
63.05
59.36
53.79
47.52
41.59
36.55
32.31
28.31
23.88
18.62
12.64
6.53
1.05
-3.19
-6.05
-7.95
-9.80
-12.67
-17.51
-24.74
-34.02
-44.19
-53.48
-59.90
-61.74
-57.98
-48.62
-34.54
-17.30
1.30
19.50
35.90
49.43
59.39
65.41
67.54
66.21
62.19
56.44
49.88
43.20
36.73
30.51
24.47
18.63
13.13
8.25
4.22
1.09
-1.38
-3.66
-6.47
-10.55
-16.42
-24.26
-33.76
-43.98
-53.42
-60.32
-62.90
-59.95
-51.11
-37.08
-19.42
-0.21
18.48
34.89
47.82
56.62
61.09
61.49
58.40
52.71
45.54
38.01
31.01
25.03
20.05
15.80
11.89
8.07
4.31
0.66
-2.86
-6.44
-10.45
-15.36
-21.65
-29.52
-38.84
-48.98
-58.79
-66.66
-70.81
-69.74
-62.67
-49.81
-32.35
-12.17
8.71
28.48
45.71
59.36
68.81
73.71
74.13
70.62
64.16
56.03
47.40
39.14
31.59
24.65
18.04
11.55
5.16
-0.90
-6.33
-11.01
-15.11
-19.14
-23.76
-29.70
-37.34
-46.62
-56.82
-66.56
-73.99
-77.17
-74.59
-65.61
-50.73
-31.41
-9.73
12.03
31.93
48.55
61.11
69.29
73.14
73.04
69.65
63.83
56.61
48.98
41.63
34.84
28.46
22.08
15.37
8.33
1.32
-5.03
-10.13
-13.80
-16.36
-18.67
-21.79
-26.68
-33.85
-43.09
-53.45
-63.25
-70.46
-73.13
-69.81
-60.06
-44.49
-24.72
-2.90
18.75
38.37
54.60
66.67
74.26
77.42
76.47
72.18
65.53
57.73
49.87
42.80
36.93
32.21
28.25
24.63
21.06
17.45
13.96
10.77
8.06
5.71
3.41
0.61
-3.38
-9.17
-17.22
-27.48
-39.27
-51.16
-61.15
-67.00
-66.91
-59.98
-46.64
-28.48
-7.83
12.87
31.60
47.06
58.58
66.03
69.49
69.16
65.41
58.91
50.60
41.70
33.36
26.43
21.23
17.59
14.98
12.82
10.68
8.33
5.74
2.90
-0.23
-3.76
-7.89
-12.78
-18.59
-25.43
-33.45
-42.58
-52.54
-62.59
-71.43
-77.40
-78.73
-74.08
-63.02
-46.21
-25.34
-2.74
19.17
38.35
53.43
63.82
69.47
70.72
68.14
62.43
54.43
45.09
35.44
26.42
18.72
12.66
8.15
4.84
2.24
-0.03
-2.22
-4.37
-6.45
-8.42
-10.39
-12.55
-15.22
-18.89
-24.07
-31.11
-39.97
-50.10
-60.21
-68.55
-73.25
-72.89
-66.83
-55.37
-39.63
-21.28
-2.19
15.84
31.34
43.16
50.83
54.33
54.24
51.41
46.80
41.22
35.27
29.34
23.62
18.20
13.10
8.31
3.78
-0.52
-4.56
-8.27
-11.57
-14.48
-17.09
-19.71
-22.76
-26.65
-31.71
-37.94
-44.88
-51.55
-56.56
-58.40
-55.85
-48.45
-36.56
-21.42
-4.74
11.70
26.39
38.22
46.54
51.09
51.90
49.35
44.15
37.22
29.64
22.40
16.12
11.03
6.96
3.50
0.27
-3.00
-6.39
-9.81
-13.26
-16.86
-20.95
-26.04
-32.68
-41.23
-51.59
-63.14
-74.58
-84.12
-89.84
-90.12
-84.07
-71.86
-54.66
-34.40
-13.31
6.57
23.59
36.66
45.21
49.23
49.17
45.92
40.69
34.69
28.91
23.91
19.74
16.13
12.67
9.10
5.37
1.66
-1.79
-4.85
-7.66
-10.66
-14.56
-20.06
-27.64
-37.24
-48.08
-58.63
-66.97
-71.13
-69.69
-62.16
-49.12
-31.96
-12.58
7.10
25.36
40.87
52.66
60.10
63.06
61.90
57.49
51.06
43.88
36.98
30.82
25.46
20.59
15.89
11.19
6.59
2.36
-1.22
-4.04
-6.23
-8.22
-10.69
-14.36
-19.87
-27.44
-36.74
-46.68
-55.61
-61.57
-62.83
-58.39
-48.23
-33.39
-15.62
3.02
20.68
35.94
47.89
56.17
60.65
61.51
59.22
54.56
48.57
42.38
36.91
32.55
29.13
26.09
22.76
18.74
14.05
9.08
4.32
0.06
-3.77
-7.52
-11.77
-17.02
-23.65
-31.78
-41.15
-51.03
-60.22
-67.08
-69.86
-67.17
-58.45
-44.20
-25.98
-5.93
13.76
31.30
45.55
55.92
62.26
64.65
63.45
59.28
53.09
45.99
39.02
32.85
27.66
23.19
19.05
14.94
10.79
6.78
3.14
0.02
-2.57
-4.81
-7.03
-9.66
-13.18
-18.08
-24.61
-32.64
-41.39
-49.57
-55.54
-57.82
-55.41
-48.07
-36.36
-21.50
-5.01
11.49
26.58
39.13
48.35
53.80
55.43
53.58
48.90
42.34
35.00
27.86
21.70
16.89
13.45
11.06
9.31
7.81
6.33
4.80
3.25
1.72
0.14
-1.80
-4.56
-8.72
-14.72
-22.71
-32.28
-42.58
-52.24
-59.70
-63.52
-62.68
-56.83
-46.33
-32.19
-15.81
1.19
17.25
31.05
41.57
48.27
51.02
50.14
46.34
40.52
33.74
26.96
20.91
15.99
12.21
9.30
6.84
4.46
1.99
-0.54
-2.97
-5.19
-7.24
-9.33
-11.87
-15.32
-20.08
-26.33
-33.91
-42.23
-50.16
-56.32
-59.26
-57.83
-51.57
-40.69
-26.17
-9.52
7.61
23.62
37.19
47.37
53.70
56.12
55.00
51.05
45.21
38.45
31.65
25.49
20.28
15.99
12.37
9.01
5.62
2.08
-1.54
-5.06
-8.38
-11.53
-14.75
-18.47
-23.15
-29.09
-36.34
-44.58
-53.04
-60.60
-65.88
-67.52
-64.51
-56.50
-43.92
-27.99
-10.38
7.12
22.86
35.59
44.57
49.49
50.45
47.99
43.02
36.61
29.86
23.62
18.36
14.14
10.74
7.81
5.04
2.27
-0.51
-3.17
-5.56
-7.65
-9.55
-11.65
-14.56
-18.90
-25.13
-33.23
-42.55
-51.82
-59.36
-63.55
-63.24
-58.01
-48.28
-35.19
-20.23
-4.88
9.59
22.21
32.31
39.39
43.13
43.48
40.80
35.81
29.59
23.18
17.41
12.68
8.97
5.99
3.35
0.82
-1.73
-4.33
-6.96
-9.69
-12.71
-16.31
-20.88
-26.79
-34.18
-42.82
-51.92
-60.17
-65.90
-67.60
-64.22
-55.53
-42.17
-25.43
-7.02
11.29
27.90
41.57
51.39
56.98
58.39
56.14
51.12
44.42
37.13
30.15
24.01
18.83
14.45
10.49
6.58
2.59
-1.52
-5.67
-9.74
-13.77
-17.95
-22.64
-28.26
-35.09
-43.14
-51.99
-60.64
-67.64
-71.43
-70.70
-64.82
-54.01
-39.39
-22.64
-5.61
10.04
23.06
32.68
38.53
40.66
39.54
35.93
30.83
25.22
19.91
15.37
11.72
8.90
6.70
4.92
3.38
1.97
0.56
-1.05
-3.11
-5.96
-10.04
-15.78
-23.53
-33.22
-44.18
-55.05
-63.96
-68.96
-68.49
-61.95
-49.75
-33.29
-14.60
4.25
21.48
35.77
46.42
53.22
56.36
56.33
53.80
49.55
44.30
38.61
32.83
27.04
21.19
15.18
9.09
3.04
-2.72
-8.03
-12.90
-17.60
-22.55
-28.37
-35.50
-44.07
-53.63
-63.11
-70.84
-74.97
-73.97
-67.01
-54.34
-37.22
-17.56
2.52
21.13
36.81
48.70
56.35
59.71
59.07
55.16
49.00
41.78
34.62
28.20
22.75
18.07
13.78
9.53
5.29
1.28
-2.21
-4.97
-7.11
-9.12
-11.78
-15.96
-22.24
-30.61
-40.32
-49.83
-57.24
-60.68
-58.82
-51.28
-38.65
-22.32
-4.08
14.35
31.49
46.27
57.88
65.80
69.77
69.92
66.75
61.17
54.21
46.77
39.53
32.80
26.62
20.88
15.51
10.54
6.07
2.23
-0.92
-3.55
-6.03
-8.99
-13.24
-19.49
-28.09
-38.69
-50.15
-60.57
-67.73
-69.73
-65.40
-54.80
-39.03
-19.96
0.38
20.08
37.71
52.27
63.07
69.80
72.49
71.54
67.78
62.28
56.15
50.20
44.80
39.85
34.93
29.57
23.60
17.15
10.68
4.72
-0.39
-4.63
-8.44
-12.51
-17.66
-24.50
-33.17
-43.18
-53.27
-61.69
-66.47
-66.02
-59.58
-47.45
-30.98
-12.06
7.28
25.41
41.24
54.09
63.52
69.24
71.09
69.25
64.38
57.50
49.85
42.44
35.91
30.32
25.40
20.74
16.04
11.28
6.65
2.45
-1.19
-4.33
-7.34
-10.75
-15.14
-21.01
-28.54
-37.55
-47.38
-56.85
-64.41
-68.35
-67.24
-60.31
-47.82
-30.97
-11.69
7.90
25.97
41.17
52.78
60.54
64.53
65.00
62.48
57.78
51.89
45.79
40.36
36.04
32.84
30.39
28.16
25.64
22.51
18.71
14.43
9.88
5.26
0.60
-4.27
-9.61
-15.79
-23.16
-31.94
-41.99
-52.70
-62.87
-70.76
-74.54
-72.66
-64.48
-50.48
-32.21
-11.87
8.28
26.33
41.02
51.78
58.51
61.46
61.18
58.37
53.87
48.56
43.25
38.53
34.71
31.85
29.72
27.99
26.27
24.18
21.51
18.17
14.24
9.81
5.01
-0.17
-5.82
-12.10
-19.28
-27.51
-36.88
-47.16
-57.70
-67.37
-74.61
-77.73
-75.35
-66.78
-52.40
-33.59
-12.44
8.74
27.87
43.49
54.82
61.75
64.57
63.92
60.57
55.37
49.15
42.69
36.63
31.44
27.36
24.31
22.04
20.12
18.09
15.71
12.87
9.68
6.28
2.71
-1.13
-5.35
-10.17
-15.74
-22.28
-30.02
-39.16
-49.59
-60.68
-71.14
-79.10
-82.54
-79.85
-70.46
-55.01
-35.26
-13.57
7.71
26.67
42.14
53.60
61.03
64.73
65.15
62.85
58.47
52.64
46.06
39.31
32.82
26.92
21.82
17.54
13.98
10.99
8.39
5.97
3.54
0.93
-2.05
-5.51
-9.51
-14.05
-19.15
-24.91
-31.62
-39.57
-48.90
-59.25
-69.62
-78.27
-83.26
-82.86
-76.19
-63.43
-45.89
-25.54
-4.52
15.27
32.41
45.98
55.49
60.83
62.28
60.40
56.01
50.02
43.29
36.60
30.45
25.22
21.07
17.95
15.58
13.60
11.64
9.43
6.89
4.07
1.07
-2.07
-5.45
-9.27
-13.84
-19.46
-26.44
-34.88
-44.57
-54.86
-64.62
-72.30
-76.27
-75.18
-68.39
-56.18
-39.76
-20.96
-1.84
15.79
30.57
41.80
49.22
52.91
53.18
50.47
45.49
39.07
32.20
25.73
20.27
15.95
12.52
9.55
6.57
3.34
-0.06
-3.36
-6.28
-8.67
-10.69
-12.73
-15.31
-19.01
-24.26
-31.34
-40.22
-50.46
-61.10
-70.73
-77.56
-79.89
-76.47
-66.96
-51.95
-32.92
-11.77
9.45
29.02
45.57
58.25
66.51
70.24
69.68
65.49
58.64
50.25
41.39
32.91
25.31
18.75
13.22
8.55
4.55
0.97
-2.37
-5.56
-8.69
-11.70
-14.59
-17.44
-20.61
-24.56
-29.84
-36.79
-45.23
-54.42
-63.01
-69.30
-71.60
-68.70
-60.14
-46.39
-28.79
-9.23
10.19
27.62
41.72
51.76
57.59
59.42
57.84
53.51
47.32
40.15
32.92
26.25
20.53
15.75
11.66
7.89
4.12
0.23
-3.72
-7.56
-11.11
-14.36
-17.47
-20.80
-24.78
-29.85
-36.38
-44.44
-53.78
-63.64
-72.76
-79.46
-82.08
-79.31
-70.59
-56.48
-38.37
-18.26
1.89
20.42
36.28
48.83
57.88
63.37
65.40
64.30
60.62
55.19
48.90
42.51
36.49
31.01
26.01
21.40
17.13
13.17
9.52
6.15
2.91
-0.40
-4.05
-8.32
-13.53
-20.02
-28.07
-37.79
-48.82
-60.32
-70.86
-78.75
-82.27
-80.21
-72.11
-58.50
-40.70
-20.53
0.09
19.53
36.55
50.26
60.18
66.07
67.99
66.39
62.00
55.82
48.86
41.94
35.53
29.72
24.34
19.13
13.89
8.57
3.28
-1.75
-6.32
-10.40
-14.08
-17.68
-21.68
-26.61
-32.95
-40.92
-50.32
-60.30
-69.43
-75.92
-78.05
-74.59
-65.21
-50.59
-32.23
-12.10
7.80
25.67
40.31
51.00
57.50
59.97
58.93
55.06
49.21
42.31
35.19
28.61
22.98
18.47
14.95
12.16
9.77
7.67
5.81
4.28
3.11
2.17
1.10
-0.64
-3.70
-8.60
-15.69
-24.87
-35.50
-46.40
-56.00
-62.57
-64.62
-61.33
-52.73
-39.72
-23.82
-6.68
10.17
25.57
38.65
48.77
55.38
58.23
57.43
53.62
47.87
41.43
35.29
29.95
25.39
21.16
16.79
11.94
6.58
0.93
-4.68
-9.97
-14.91
-19.58
-24.27
-29.31
-35.09
-41.89
-49.76
-58.41
-67.05
-74.35
-78.69
-78.55
-72.96
-61.86
-46.20
-27.64
-8.19
10.28
26.38
39.25
48.50
54.08
56.18
55.19
51.70
46.50
40.48
34.49
29.15
24.68
20.89
17.38
13.76
9.85
5.78
1.87
-1.55
-4.42
-6.99
-9.85
-13.69
-19.19
-26.72
-36.16
-46.84
-57.45
-66.26
-71.43
-71.45
-65.57
-54.06
-38.08
-19.42
-0.07
18.23
34.20
46.97
56.10
61.41
63.04
61.44
57.39
51.86
45.81
40.03
34.92
30.49
26.47
22.42
18.00
13.09
7.84
2.55
-2.48
-7.14
-11.62
-16.42
-22.18
-29.53
-38.77
-49.70
-61.48
-72.60
-81.12
-85.08
-83.00
-74.36
-59.71
-40.61
-19.18
2.37
22.22
39.14
52.38
61.63
66.85
68.21
66.26
61.80
55.95
49.90
44.59
40.54
37.72
35.63
33.56
30.88
27.31
22.87
17.85
12.54
7.14
1.51
-4.61
-11.66
-20.02
-29.93
-41.29
-53.51
-65.42
-75.35
-81.44
-82.04
-76.21
-64.08
-46.81
-26.44
-5.22
14.76
32.03
45.76
55.62
61.64
63.98
62.98
59.25
53.71
47.48
41.65
37.03
33.91
32.02
30.73
29.40
27.55
25.08
22.08
18.81
15.42
11.90
8.05
3.48
-2.26
-9.58
-18.76
-29.79
-42.14
-54.69
-65.80
-73.52
-76.01
-72.04
-61.41
-45.01
-24.68
-2.79
18.31
36.69
51.18
61.25
67.05
69.03
67.95
64.60
59.79
54.27
48.68
43.56
39.25
35.92
33.41
31.31
29.08
26.23
22.55
18.11
13.25
8.34
3.58
-1.13
-6.18
-12.08
-19.31
-28.13
-38.53
-50.13
-62.05
-72.84
-80.65
-83.60
-80.21
-70.02
-53.79
-33.37
-11.17
10.43
29.52
44.94
56.15
63.14
66.16
65.75
62.65
57.70
51.77
45.68
39.97
34.99
30.89
27.69
25.27
23.46
21.98
20.46
18.57
16.11
13.04
9.45
5.41
0.86
-4.32
-10.38
-17.68
-26.39
-36.52
-47.74
-59.28
-69.86
-77.77
-81.17
-78.63
-69.46
-54.18
-34.34
-12.21
9.75
29.47
45.52
57.20
64.41
67.49
67.03
63.83
58.80
52.85
46.80
41.23
36.45
32.49
29.24
26.53
24.22
22.17
20.26
18.30
16.09
13.43
10.27
6.60
2.48
-2.06
-7.06
-12.79
-19.62
-27.91
-37.77
-48.89
-60.40
-70.92
-78.68
-81.97
-79.56
-71.01
-56.90
-38.70
-18.47
1.58
19.56
34.06
44.44
50.65
53.18
52.78
50.20
46.19
41.36
36.27
31.45
27.28
24.03
21.65
19.87
18.36
16.84
15.18
13.38
11.42
9.19
6.49
3.08
-1.16
-6.22
-12.04
-18.66
-26.27
-35.06
-44.95
-55.33
-65.04
-72.42
-75.84
-74.09
-66.74
-54.28
-37.94
-19.48
-0.68
16.82
31.75
43.28
51.00
54.95
55.46
53.12
48.72
43.07
36.92
30.92
25.47
20.76
16.81
13.41
10.25
6.92
3.17
-1.09
-5.77
-10.61
-15.37
-19.88
-24.26
-28.81
-33.90
-39.87
-46.88
-54.70
-62.66
-69.70
-74.39
-75.34
-71.49
-62.42
-48.61
-31.32
-12.33
6.42
23.23
36.85
46.55
52.13
53.78
52.03
47.70
41.82
35.48
29.53
24.50
20.50
17.29
14.45
11.52
8.19
4.37
0.16
-4.22
-8.47
-12.40
-16.06
-19.79
-24.17
-29.82
-37.27
-46.53
-57.01
-67.48
-76.29
-81.65
-82.11
-76.82
-65.78
-49.87
-30.68
-10.16
9.69
27.17
41.08
50.80
56.17
57.44
55.13
50.02
43.18
35.67
28.39
21.98
16.55
11.88
7.59
3.46
-0.51
-4.13
-7.16
-9.49
-11.31
-13.02
-15.20
-18.52
-23.53
-30.61
-39.66
-49.94
-60.05
-68.02
-71.86
-70.02
-61.93
-48.12
-30.15
-10.07
10.03
28.40
43.83
55.50
62.99
66.13
65.11
60.42
52.99
44.01
34.69
25.99
18.46
12.10
6.52
1.28
-3.88
-8.94
-13.59
-17.55
-20.76
-23.54
-26.54
-30.53
-36.15
-43.71
-53.05
-63.50
-73.84
-82.42
-87.40
-87.13
-80.59
-67.75
-49.65
-28.14
-5.40
16.43
35.68
51.27
62.55
69.29
71.58
69.87
65.02
58.19
50.67
43.55
37.48
32.53
28.29
24.19
19.72
14.75
9.47
4.37
-0.11
-3.78
-6.85
-9.90
-13.73
-19.14
-26.65
-36.31
-47.43
-58.67
-68.12
-73.75
-73.88
-67.62
-55.18
-37.79
-17.45
3.64
23.44
40.44
53.68
62.65
67.27
67.71
64.53
58.65
51.29
43.73
37.08
31.99
28.48
26.07
24.00
21.62
18.64
15.15
11.52
8.09
4.92
1.68
-2.22
-7.57
-15.05
-24.98
-37.19
-50.82
-64.34
-75.65
-82.61
-83.49
-77.56
-65.21
-47.93
-27.86
-7.22
12.08
28.59
41.42
50.15
54.73
55.51
53.25
48.98
43.78
38.58
33.91
29.91
26.41
23.11
19.75
16.27
12.74
9.39
6.39
3.74
1.23
-1.53
-5.08
-10.00
-16.77
-25.52
-35.90
-46.90
-56.84
-63.69
-65.60
-61.45
-51.19
-35.88
-17.36
2.29
21.24
38.06
51.78
61.71
67.43
68.85
66.34
60.80
53.45
45.63
38.36
32.12
26.85
22.16
17.63
13.07
8.55
4.34
0.74
-2.16
-4.52
-6.82
-9.70
-13.89
-19.89
-27.71
-36.76
-45.77
-53.06
-56.89
-55.95
-49.71
-38.54
-23.63
-6.66
10.55
26.30
39.26
48.53
53.71
54.88
52.52
47.51
40.84
33.50
26.31
19.77
14.09
9.28
5.21
1.71
-1.36
-4.12
-6.65
-9.11
-11.73
-14.97
-19.28
-25.12
-32.63
-41.52
-50.86
-59.27
-65.12
-66.85
-63.46
-54.68
-41.15
-24.27
-5.93
11.91
27.55
39.81
48.11
52.34
52.83
50.17
45.19
38.78
31.84
25.10
18.98
13.60
8.79
4.31
-0.02
-4.24
-8.31
-12.24
-16.22
-20.68
-26.12
-32.94
-41.20
-50.52
-60.04
-68.37
-73.94
-75.23
-71.16
-61.39
-46.53
-27.95
-7.61
12.42
30.32
44.64
54.53
59.57
59.97
56.41
50.01
42.09
33.85
26.21
19.56
13.95
9.16
5.02
1.39
-1.70
-4.25
-6.30
-8.13
-10.22
-13.22
-17.76
-24.30
-32.81
-42.54
-52.09
-59.57
-63.03
-61.02
-53.02
-39.50
-21.92
-2.27
17.39
35.28
50.02
60.70
66.90
68.63
66.35
60.87
53.25
44.59
35.85
27.60
20.13
13.41
7.29
1.59
-3.77
-8.79
-13.40
-17.59
-21.50
-25.52
-30.26
-36.39
-44.27
-53.60
-63.27
-71.42
-75.94
-75.07
-67.96
-54.84
-37.03
-16.45
4.86
25.07
42.72
56.74
66.44
71.51
72.15
69.00
63.19
56.00
48.57
41.68
35.62
30.25
25.16
20.04
14.73
9.30
4.03
-0.91
-5.53
-10.17
-15.46
-22.27
-31.33
-42.88
-56.36
-70.32
-82.45
-90.21
-91.45
-85.03
-71.14
-51.32
-27.91
-3.52
19.49
39.37
55.03
65.87
71.76
72.97
70.15
64.33
56.82
48.99
41.85
35.95
31.20
27.14
23.12
18.73
13.88
8.83
4.02
-0.21
-3.84
-7.34
-11.55
-17.56
-26.21
-37.74
-51.44
-65.56
-77.64
-85.05
-85.74
-78.81
-64.81
-45.48
-23.24
-0.56
20.50
38.53
52.74
62.70
68.26
69.60
67.19
61.90
54.92
47.45
40.49
34.58
29.80
25.88
22.42
19.05
15.60
12.03
8.46
4.99
1.67
-1.60
-5.15
-9.51
-15.28
-22.99
-32.73
-43.97
-55.38
-65.11
-71.06
-71.48
-65.43
-53.11
-35.83
-15.62
5.23
24.69
41.33
54.38
63.57
69.00
70.91
69.66
65.82
60.11
53.45
46.78
40.78
35.75
31.52
27.62
23.51
18.91
13.86
8.64
3.56
-1.24
-5.83
-10.47
-15.45
-21.06
-27.55
-35.15
-43.99
-53.87
-63.95
-72.76
-78.31
-78.63
-72.42
-59.54
-41.03
-18.95
4.33
26.53
45.92
61.37
72.24
78.37
79.91
77.40
71.78
64.32
56.40
49.18
43.36
38.98
35.59
32.53
29.22
25.43
21.24
16.93
12.67
8.46
4.12
-0.66
-6.07
-12.28
-19.44
-27.74
-37.33
-48.19
-59.78
-70.89
-79.76
-84.36
-83.07
-75.16
-61.04
-42.22
-20.86
0.72
20.55
37.23
49.98
58.50
62.94
63.73
61.52
57.16
51.56
45.55
39.79
34.69
30.36
26.64
23.21
19.71
15.85
11.56
6.99
2.32
-2.20
-6.57
-10.89
-15.49
-20.76
-27.09
-34.74
-43.67
-53.42
-63.04
-70.98
-75.51
-75.00
-68.51
-56.11
-38.97
-19.01
1.59
20.82
37.24
50.04
58.83
63.48
64.07
60.96
54.87
46.87
38.26
30.18
23.33
17.90
13.59
9.89
6.34
2.73
-0.90
-4.33
-7.31
-9.79
-11.98
-14.28
-17.28
-21.51
-27.40
-35.12
-44.41
-54.59
-64.37
-72.16
-76.16
-74.93
-67.75
-54.93
-37.75
-18.15
1.70
19.94
35.18
46.56
53.71
56.67
55.79
51.85
45.96
39.22
32.67
26.95
22.24
18.43
15.21
12.22
9.25
6.12
2.81
-0.61
-4.05
-7.48
-10.99
-14.93
-19.82
-26.19
-34.32
-43.95
-54.13
-63.32
-69.69
-71.55
-67.91
-58.66
-44.60
-27.23
-8.40
10.11
26.72
40.20
49.72
54.91
55.86
53.15
47.75
40.79
33.38
26.32
20.04
14.59
9.66
4.89
0.03
-5.00
-10.02
-14.81
-19.17
-23.16
-27.01
-31.20
-36.22
-42.44
-49.91
-58.19
-66.39
-73.17
-76.99
-76.41
-70.48
-59.07
-43.03
-23.94
-3.77
15.54
32.42
45.85
55.29
60.53
61.74
59.39
54.28
47.51
40.24
33.42
27.53
22.57
18.20
13.99
9.61
4.91
-0.07
-5.20
-10.35
-15.44
-20.51
-25.75
-31.49
-38.09
-45.66
-53.96
-62.11
-68.75
-72.32
-71.47
-65.36
-53.99
-38.15
-19.27
0.81
20.16
37.08
50.24
58.89
62.80
62.32
58.22
51.64
43.84
35.98
28.91
23.01
18.21
14.10
10.28
6.50
2.79
-0.63
-3.58
-6.07
-8.45
-11.35
-15.53
-21.61
-29.88
-40.03
-51.07
-61.46
-69.31
-72.77
-70.55
-62.16
-48.23
-30.24
-10.39
9.05
26.10
39.33
47.99
51.93
51.55
47.67
41.41
33.99
26.52
19.66
13.64
8.22
2.93
-2.57
-8.34
-14.03
-19.21
-23.50
-26.98
-30.02
-33.31
-37.66
-43.63
-51.43
-60.61
-70.00
-77.79
-81.91
-80.47
-72.39
-57.80
-38.03
-15.35
7.58
28.33
45.14
56.97
63.54
65.13
62.48
56.68
48.95
40.53
32.43
25.28
19.23
14.07
9.45
5.03
0.70
-3.47
-7.40
-11.08
-14.81
-19.08
-24.61
-31.98
-41.37
-52.27
-63.38
-72.69
-77.94
-77.24
-69.59
-55.27
-35.82
-13.57
8.90
29.31
46.18
58.65
66.52
69.93
69.26
65.24
58.74
50.87
42.53
34.41
26.80
19.74
13.19
7.22
2.02
-2.18
-5.34
-7.75
-10.07
-13.21
-18.10
-25.39
-35.17
-46.73
-58.42
-67.93
-72.71
-70.73
-61.09
-44.35
-22.41
1.99
26.00
47.22
64.01
75.58
81.77
82.94
79.78
73.28
64.55
54.75
44.86
35.58
27.29
20.05
13.80
8.40
3.81
0.10
-2.68
-4.66
-6.30
-8.37
-11.81
-17.38
-25.22
-34.56
-43.76
-50.61
-52.93
-49.25
-39.18
-23.59
-4.26
16.56
36.63
54.10
67.62
76.44
80.32
79.54
74.85
67.40
58.49
49.40
41.08
34.02
28.27
23.55
19.42
15.52
11.68
7.93
4.42
1.21
-1.84
-5.26
-9.81
-16.25
-24.94
-35.51
-46.71
-56.57
-62.80
-63.50
-57.66
-45.50
-28.38
-8.45
11.95
30.73
46.38
58.06
65.41
68.50
67.70
63.78
57.69
50.64
43.76
37.80
32.99
29.04
25.34
21.32
16.73
11.69
6.55
1.67
-2.80
-7.08
-11.69
-17.35
-24.68
-33.96
-44.86
-56.19
-66.11
-72.44
-73.15
-67.05
-54.15
-35.79
-14.21
7.97
28.47
45.65
58.62
67.06
70.99
70.63
66.54
59.68
51.29
42.80
35.32
29.41
24.89
21.07
17.24
12.89
8.02
3.01
-1.63
-5.55
-8.92
-12.23
-16.29
-21.92
-29.64
-39.42
-50.59
-61.79
-71.17
-76.73
-76.75
-70.25
-57.36
-39.24
-17.90
4.42
25.61
44.09
58.81
69.26
75.22
76.82
74.49
69.06
61.66
53.49
45.53
38.36
32.05
26.30
20.74
15.14
9.46
3.89
-1.29
-5.93
-10.13
-14.26
-18.98
-24.98
-32.73
-42.25
-52.89
-63.23
-71.38
-75.35
-73.60
-65.55
-51.71
-33.55
-13.19
7.06
25.17
39.66
49.63
54.86
55.61
52.65
46.99
39.85
32.39
25.53
19.83
15.38
11.99
9.30
7.07
5.11
3.34
1.72
0.09
-1.89
-4.66
-8.80
-14.78
-22.91
-33.04
-44.35
-55.38
-64.15
-68.66
-67.44
-60.00
-47.07
-30.36
-12.08
5.61
21.02
33.05
41.22
45.55
46.33
44.19
39.95
34.58
29.02
23.96
19.71
16.24
13.25
10.47
7.65
4.74
1.79
-1.16
-4.25
-7.79
-12.30
-18.29
-26.04
-35.31
-45.19
-54.14
-60.26
-61.82
-57.77
-48.12
-33.91
-16.96
0.63
16.88
30.30
40.01
45.67
47.45
46.03
42.38
37.57
32.58
27.98
23.92
20.25
16.72
13.18
9.67
6.34
3.31
0.57
-2.07
-4.92
-8.30
-12.57
-17.99
-24.55
-31.89
-39.17
-45.07
-48.12
-47.06
-41.25
-30.87
-16.93
-1.07
14.75
28.70
39.34
45.79
47.91
46.16
41.47
34.94
27.56
20.10
12.92
6.19
-0.04
-5.64
-10.41
-14.19
-16.89
-18.56
-19.47
-20.03
-20.73
-22.18
-24.86
-28.98
-34.30
-40.05
-44.98
-47.64
-46.79
-41.68
-32.39
-19.73
-5.14
9.70
23.16
33.95
41.21
44.59
44.28
40.89
35.30
28.52
21.38
14.52
8.28
2.76
-2.07
-6.27
-9.91
-13.01
-15.58
-17.74
-19.71
-21.92
-24.97
-29.43
-35.65
-43.40
-51.77
-59.25
-64.04
-64.62
-60.08
-50.41
-36.49
-19.80
-2.14
14.68
29.15
40.12
46.92
49.46
48.12
43.74
37.31
29.80
22.03
14.59
7.86
2.11
-2.46
-5.79
-7.91
-9.09
-9.79
-10.57
-12.05
-14.72
-18.93
-24.71
-31.78
-39.40
-46.42
-51.43
-53.03
-50.22
-42.67
-30.86
-16.01
0.15
15.78
29.25
39.41
45.78
48.34
47.57
44.16
38.97
32.79
26.31
20.03
14.14
8.67
3.49
-1.54
-6.48
-11.29
-15.92
-20.37
-24.84
-29.67
-35.25
-41.88
-49.41
-57.16
-63.92
-68.10
-68.14
-62.98
-52.40
-37.17
-18.89
0.40
18.60
34.00
45.46
52.51
55.25
54.26
50.37
44.53
37.71
30.69
24.02
17.88
12.23
6.87
1.66
-3.46
-8.42
-13.08
-17.45
-21.71
-26.26
-31.59
-38.01
-45.46
-53.27
-60.22
-64.71
-65.16
-60.45
-50.35
-35.63
-17.94
0.59
17.85
32.17
42.52
48.52
50.37
48.60
44.01
37.59
30.32
22.97
16.08
9.85
4.23
-0.91
-5.64
-9.92
-13.71
-17.02
-19.99
-22.99
-26.52
-31.05
-36.97
-44.29
-52.51
-60.48
-66.57
-68.98
-66.25
-57.78
-44.02
-26.46
-7.21
11.57
28.02
40.91
49.58
53.90
54.18
51.04
45.40
38.31
30.81
23.66
17.33
11.94
7.36
3.40
-0.19
-3.62
-7.11
-10.89
-15.27
-20.59
-27.21
-35.39
-45.07
-55.71
-66.09
-74.40
-78.61
-77.10
-69.05
-54.80
-35.83
-14.33
7.27
26.80
42.63
53.86
60.28
62.23
60.45
55.92
49.65
42.54
35.29
28.35
22.02
16.36
11.37
6.97
3.06
-0.45
-3.71
-7.03
-10.85
-15.84
-22.58
-31.28
-41.46
-51.86
-60.46
-65.12
-64.08
-56.52
-42.81
-24.48
-3.74
17.01
35.61
50.55
61.00
66.82
68.39
66.46
62.00
56.01
49.35
42.62
36.10
29.80
23.68
17.62
11.67
5.95
0.60
-4.41
-9.32
-14.61
-20.93
-28.94
-38.95
-50.78
-63.41
-75.11
-83.59
-86.50
-82.15
-69.99
-50.86
-26.86
-0.85
24.25
46.03
62.99
74.49
80.67
82.19
79.97
75.06
68.49
61.18
53.77
46.60
39.66
32.68
25.40
17.76
9.95
2.40
-4.52
-10.64
-16.27
-22.05
-28.83
-37.28
-47.65
-59.50
-71.55
-81.85
-88.13
-88.26
-80.90
-66.04
-45.02
-20.28
5.37
29.42
49.98
66.07
77.28
83.53
84.91
81.89
75.32
66.55
57.18
48.59
41.58
36.19
31.84
27.79
23.45
18.72
13.85
9.19
4.95
1.00
-3.13
-8.08
-14.52
-23.00
-33.75
-46.54
-60.38
-73.49
-83.48
-87.82
-84.59
-73.03
-53.93
-29.47
-2.56
23.81
47.19
65.99
79.53
87.80
91.26
90.60
86.69
80.46
72.92
65.03
57.60
51.13
45.74
41.16
36.87
32.28
27.07
21.22
15.04
8.97
3.40
-1.59
-6.16
-10.80
-16.17
-23.00
-31.85
-42.91
-55.74
-69.15
-81.12
-89.26
-91.28
-85.67
-72.24
-52.22
-27.99
-2.44
21.77
42.69
59.20
70.96
78.12
81.06
80.39
76.89
71.53
65.31
59.13
53.57
48.89
45.04
41.84
39.05
36.36
33.48
30.07
25.87
20.77
14.83
8.31
1.45
-5.54
-12.63
-19.97
-27.89
-36.74
-46.82
-58.04
-69.82
-80.82
-89.12
-92.55
-89.33
-78.56
-60.67
-37.36
-11.17
15.12
38.97
58.61
73.04
82.01
85.82
85.19
81.12
74.68
67.00
59.06
51.57
44.93
39.23
34.36
30.16
26.47
23.24
20.43
17.97
15.70
13.25
10.29
6.55
1.99
-3.14
-8.48
-13.69
-18.75
-23.97
-29.97
-37.43
-46.63
-57.20
-67.97
-77.11
-82.42
-81.98
-74.62
-60.34
-40.35
-16.88
7.46
30.20
49.43
64.06
73.65
78.35
78.63
75.26
69.24
61.74
53.91
46.72
40.75
36.10
32.56
29.72
27.26
25.08
23.27
21.95
21.16
20.64
19.87
18.19
15.14
10.53
4.64
-2.00
-8.82
-15.55
-22.34
-29.71
-38.21
-48.17
-59.35
-70.84
-81.17
-88.65
-91.72
-89.20
-80.59
-66.15
-46.97
-24.80
-1.76
19.91
38.39
52.43
61.51
65.73
65.74
62.42
56.78
49.81
42.39
35.16
28.60
22.85
17.91
13.75
10.41
7.94
6.40
5.60
5.26
4.93
4.19
2.58
-0.15
-4.11
-9.30
-15.47
-22.25
-29.11
-35.53
-41.28
-46.48
-51.56
-57.08
-63.28
-69.77
-75.46
-78.79
-78.10
-72.34
-61.28
-45.68
-27.06
-7.35
11.62
28.34
41.75
51.34
57.01
59.03
57.98
54.66
49.88
44.49
39.13
34.15
29.69
25.63
21.82
18.21
14.87
11.90
9.39
7.20
5.10
2.81
0.10
-3.13
-6.89
-11.09
-15.60
-20.30
-25.06
-29.84
-34.63
-39.60
-45.02
-51.06
-57.66
-64.31
-70.04
-73.54
-73.50
-68.88
-59.33
-45.23
-27.77
-8.66
10.25
27.29
41.21
51.21
57.03
58.82
57.14
52.83
46.89
40.31
33.85
28.03
23.02
18.82
15.39
12.70
10.75
9.49
8.79
8.47
8.29
8.02
7.52
6.65
5.25
3.18
0.26
-3.62
-8.57
-14.59
-21.69
-29.78
-38.66
-47.90
-56.72
-64.03
-68.49
-68.91
-64.50
-55.20
-41.73
-25.50
-8.28
8.14
22.28
33.09
40.05
43.16
42.76
39.55
34.37
28.10
21.52
15.28
9.79
5.33
2.00
-0.28
-1.72
-2.66
-3.54
-4.66
-6.19
-8.14
-10.41
-12.97
-15.85
-19.22
-23.18
-27.84
-33.19
-39.11
-45.40
-51.70
-57.46
-61.88
-64.02
-62.96
-58.05
-49.14
-36.68
-21.75
-5.74
9.85
23.76
35.08
43.34
48.36
50.26
49.31
45.91
40.60
34.01
26.80
19.56
12.80
6.80
1.71
-2.52
-6.04
-8.97
-11.40
-13.38
-14.90
-15.98
-16.77
-17.60
-18.87
-21.02
-24.47
-29.45
-35.95
-43.61
-51.62
-58.79
-63.68
-64.94
-61.62
-53.46
-40.98
-25.33
-8.12
9.00
24.57
37.52
47.21
53.31
55.82
54.99
51.37
45.67
38.73
31.31
24.06
17.34
11.28
5.82
0.88
-3.62
-7.63
-11.15
-14.08
-16.44
-18.25
-19.68
-20.95
-22.55
-25.08
-29.15
-35.14
-42.90
-51.51
-59.41
-64.69
-65.61
-61.18
-51.34
-36.94
-19.48
-0.73
17.62
34.04
47.32
56.68
61.79
62.81
60.26
54.89
47.60
39.30
30.81
22.93
16.18
10.83
6.78
3.67
1.03
-1.44
-3.86
-6.14
-8.18
-10.02
-11.90
-14.27
-17.67
-22.58
-29.25
-37.62
-47.23
-57.14
-65.98
-72.16
-74.12
-70.78
-61.77
-47.67
-29.89
-10.29
9.11
26.56
40.77
51.03
57.08
59.15
57.71
53.54
47.51
40.48
33.20
26.22
19.87
14.26
9.39
5.11
1.26
-2.24
-5.42
-8.28
-10.72
-12.78
-14.59
-16.55
-19.24
-23.19
-28.89
-36.48
-45.54
-55.18
-64.08
-70.62
-73.27
-70.85
-62.98
-50.05
-33.34
-14.57
4.36
21.83
36.68
48.15
55.96
60.12
60.92
58.86
54.70
49.33
43.69
38.51
34.24
30.93
28.32
26.02
23.63
20.95
17.89
14.51
10.82
6.70
1.96
-3.63
-10.27
-18.11
-27.18
-37.44
-48.55
-59.79
-69.98
-77.49
-80.67
-78.17
-69.48
-55.10
-36.51
-15.74
5.05
24.01
39.84
51.77
59.59
63.41
63.63
60.90
56.04
49.94
43.48
37.34
31.91
27.35
23.48
20.00
16.48
12.64
8.35
3.72
-0.98
-5.50
-9.68
-13.58
-17.50
-21.87
-27.14
-33.61
-41.33
-49.82
-58.13
-64.75
-68.02
-66.41
-59.09
-46.33
-29.33
-10.06
9.38
27.15
41.98
53.16
60.39
63.62
63.00
59.03
52.54
44.64
36.53
29.15
22.98
18.03
14.00
10.45
7.06
3.69
0.39
-2.72
-5.48
-7.81
-9.73
-11.45
-13.35
-15.98
-19.95
-25.80
-33.76
-43.43
-53.76
-63.03
-69.16
-70.22
-64.99
-53.37
-36.44
-16.26
4.74
24.39
41.13
54.15
63.18
68.29
69.67
67.65
62.76
55.85
47.98
40.23
33.48
28.13
24.15
21.11
18.45
15.73
12.73
9.46
6.03
2.60
-0.87
-4.49
-8.48
-13.09
-18.54
-25.02
-32.73
-41.68
-51.51
-61.30
-69.55
-74.41
-74.10
-67.52
-54.64
-36.60
-15.47
6.43
26.90
44.34
57.84
67.01
71.89
72.71
69.93
64.21
56.47
47.76
39.16
31.48
25.21
20.46
16.99
14.36
12.14
9.98
7.65
5.09
2.28
-0.76
-4.12
-7.88
-12.24
-17.56
-24.24
-32.68
-42.99
-54.78
-66.96
-77.67
-84.69
-85.92
-80.00
-66.82
-47.61
-24.64
-0.63
21.88
41.06
55.90
66.23
72.35
74.80
74.13
70.94
65.88
59.67
53.08
46.78
41.24
36.54
32.46
28.53
24.32
19.59
14.42
9.09
3.89
-1.00
-5.74
-10.70
-16.35
-23.11
-31.17
-40.59
-51.07
-61.94
-71.98
-79.56
-82.79
-80.17
-70.97
-55.62
-35.67
-13.40
8.77
28.78
45.30
57.65
65.72
69.66
69.82
66.68
60.93
53.46
45.34
37.58
31.01
26.04
22.64
20.40
18.69
16.92
14.65
11.73
8.24
4.36
0.18
-4.47
-10.00
-16.97
-25.86
-36.89
-49.86
-64.03
-78.09
-90.27
-98.56
-101.17
-96.95
-85.79
-68.69
-47.62
-24.94
-2.82
17.05
33.64
46.46
55.23
59.92
60.68
57.97
52.68
46.04
39.33
33.49
28.92
25.38
22.23
18.81
14.69
9.87
4.65
-0.56
-5.48
-10.13
-14.82
-20.11
-26.61
-34.88
-45.22
-57.51
-71.01
-84.19
-94.92
-100.90
-100.15
-91.72
-75.96
-54.58
-30.10
-5.20
17.84
37.54
53.21
64.71
72.13
75.74
75.96
73.46
69.17
64.11
59.24
55.16
51.99
49.50
47.24
44.77
41.84
38.40
34.58
30.47
26.10
21.31
15.76
9.02
0.72
-9.36
-21.18
-34.21
-47.40
-59.24
-67.83
-71.32
-68.31
-58.35
-42.09
-21.27
1.77
24.62
45.25
62.27
74.86
82.54
85.09
82.52
75.21
64.06
50.43
35.92
22.00
9.69
-0.50
-8.47
-14.41
-18.52
-21.04
-22.23
-22.47
-22.17
-21.77
-21.65
-22.06
-23.22
-25.42
-28.99
-34.27
-41.31
-49.49
-57.51
-63.51
-65.52
-62.07
-52.60
-37.61
-18.41
3.32
25.88
47.66
67.28
83.47
95.14
101.54
102.52
98.59
90.87
80.84
69.98
59.46
49.96
41.62
34.19
27.21
20.30
13.24
6.07
-1.05
-7.96
-14.59
-21.13
-28.00
-35.78
-45.09
-56.39
-69.64
-84.07
-98.11
-109.51
-115.89
-115.40
-107.23
-92.03
-71.60
-48.46
-25.16
-3.78
14.36
28.59
38.69
44.79
47.22
46.57
43.79
40.04
36.46
33.88
32.56
32.13
31.85
30.93
28.81
25.46
21.27
16.80
12.48
8.35
4.03
-1.17
-8.01
-16.96
-28.08
-40.77
-53.79
-65.37
-73.45
-76.21
-72.43
-61.91
-45.55
-25.17
-3.06
18.55
37.91
53.88
65.94
73.91
77.93
78.28
75.51
70.52
64.38
58.13
52.49
47.63
43.27
38.82
33.88
28.30
22.43
16.82
11.99
8.12
4.93
1.78
-2.17
-7.60
-14.80
-23.52
-32.83
-41.32
-47.24
-48.95
-45.34
-36.05
-21.72
-3.72
16.20
36.20
54.72
70.57
82.89
91.16
95.22
95.31
92.08
86.59
80.17
74.00
68.87
64.92
61.70
58.41
54.32
49.09
42.79
35.79
28.47
20.96
12.98
4.00
-6.63
-19.38
-34.40
-51.21
-68.70
-85.15
-98.39
-106.38
-107.73
-102.18
-90.68
-75.01
-57.33
-39.59
-23.25
-9.22
1.86
9.55
13.61
14.12
11.61
7.00
1.43
-4.12
-9.05
-13.28
-17.06
-20.78
-24.67
-28.63
-32.30
-35.25
-37.31
-38.67
-39.94
-42.01
-45.69
-51.43
-59.01
-67.50
-75.33
-80.60
-81.56
-76.99
-66.65
-51.23
-32.28
-11.80
8.19
26.03
40.53
50.99
57.18
59.19
57.58
53.18
47.10
40.39
33.93
28.17
23.17
18.68
14.36
9.97
5.49
1.04
-3.15
-6.97
-10.52
-14.16
-18.44
-23.98
-31.26
-40.35
-50.74
-61.27
-70.22
-75.69
-76.00
-70.18
-58.27
-41.32
-21.19
-0.06
20.06
37.53
51.30
60.75
65.74
66.45
63.44
57.55
49.86
41.52
33.51
26.44
20.49
15.41
10.83
6.46
2.22
-1.75
-5.21
-8.12
-10.70
-13.53
-17.39
-23.03
-30.90
-40.89
-52.19
-63.35
-72.49
-77.66
-77.35
-70.90
-58.63
-41.83
-22.34
-2.16
16.85
33.26
46.15
55.05
59.87
60.91
58.82
54.46
48.77
42.67
36.73
31.21
26.06
21.02
15.89
10.55
5.10
-0.25
-5.37
-10.32
-15.40
-21.14
-28.13
-36.72
-46.77
-57.59
-67.85
-75.85
-79.89
-78.68
-71.68
-59.26
-42.62
-23.56
-4.07
13.96
29.02
40.08
46.73
49.08
47.67
43.45
37.58
31.28
25.57
21.08
17.99
16.04
14.75
13.62
12.35
10.80
9.07
7.11
4.76
1.52
-3.25
-10.04
-19.05
-29.83
-41.28
-51.78
-59.45
-62.59
-60.10
-51.75
-38.23
-21.08
-2.31
15.95
31.89
44.26
52.47
56.56
57.01
54.64
50.37
45.20
39.96
35.20
31.12
27.56
24.16
20.46
16.26
11.50
6.39
1.18
-4.06
-9.58
-15.88
-23.61
-33.26
-44.92
-58.07
-71.54
-83.54
-92.02
-95.04
-91.29
-80.48
-63.48
-42.18
-19.06
3.41
23.23
39.18
50.75
57.97
61.18
60.98
58.19
53.65
48.28
42.85
37.77
33.07
28.50
23.64
18.25
12.35
6.23
0.33
-5.06
-9.88
-14.47
-19.52
-25.82
-33.95
-43.92
-54.93
-65.40
-73.24
-76.33
-73.24
-63.55
-48.02
-28.42
-6.99
14.02
32.77
47.97
58.89
65.29
67.26
65.28
60.20
53.22
45.55
38.32
32.18
27.27
23.24
19.55
15.81
11.91
8.01
4.42
1.31
-1.55
-4.69
-8.94
-15.10
-23.69
-34.61
-46.99
-59.23
-69.28
-75.02
-74.80
-67.89
-54.59
-36.25
-14.94
7.05
27.68
45.34
59.05
68.33
73.14
73.76
70.80
65.16
57.96
50.33
43.21
37.08
31.94
27.36
22.86
18.09
13.03
7.87
2.99
-1.41
-5.41
-9.41
-14.17
-20.52
-29.11
-40.04
-52.68
-65.59
-76.69
-83.75
-84.84
-78.97
-66.19
-47.70
-25.53
-2.06
20.48
40.27
56.16
67.58
74.42
76.99
75.79
71.60
65.41
58.23
51.03
44.40
38.60
33.39
28.40
23.24
17.77
12.20
6.92
2.31
-1.59
-5.15
-9.16
-14.52
-21.95
-31.70
-43.34
-55.79
-67.41
-76.22
-80.26
-78.11
-69.23
-54.23
-34.75
-13.04
8.47
27.85
43.87
55.88
63.71
67.47
67.49
64.32
58.81
51.97
44.83
38.10
32.13
26.85
22.00
17.28
12.61
8.05
3.80
0.04
-3.16
-5.93
-8.63
-11.80
-16.10
-22.14
-30.26
-40.27
-51.28
-61.69
-69.44
-72.43
-69.22
-59.38
-43.71
-23.95
-2.43
18.58
37.27
52.42
63.42
70.03
72.37
70.76
65.86
58.67
50.36
42.15
34.92
29.01
24.26
20.08
15.82
10.96
5.41
-0.53
-6.38
-11.75
-16.60
-21.22
-26.18
-32.11
-39.39
-48.09
-57.73
-67.31
-75.33
-79.99
-79.57
-72.94
-59.89
-41.34
-19.16
4.29
26.72
46.29
61.85
72.77
78.87
80.26
77.34
70.80
61.62
50.95
39.94
29.53
20.28
12.35
5.60
-0.27
-5.54
-10.29
-14.45
-17.87
-20.46
-22.31
-23.84
-25.70
-28.68
-33.46
-40.33
-48.99
-58.42
-67.01
-72.81
-73.98
-69.32
-58.66
-42.86
-23.65
-3.10
16.85
34.62
49.14
59.74
66.05
68.03
66.04
60.85
53.62
45.65
38.10
31.71
26.69
22.75
19.41
16.21
12.94
9.64
6.51
3.75
1.29
-1.17
-4.21
-8.50
-14.66
-23.10
-33.73
-45.86
-58.05
-68.35
-74.68
-75.33
-69.53
-57.66
-41.17
-22.09
-2.59
15.52
30.89
42.75
50.67
54.60
54.74
51.67
46.30
39.64
32.74
26.35
20.86
16.25
12.22
8.41
4.55
0.59
-3.29
-6.87
-9.97
-12.63
-15.19
-18.24
-22.55
-28.70
-36.96
-46.94
-57.65
-67.44
-74.42
-76.84
-73.55
-64.32
-49.87
-31.76
-11.90
7.73
25.49
40.08
50.79
57.26
59.57
58.17
53.83
47.55
40.40
33.24
26.60
20.66
15.28
10.27
5.52
1.04
-3.02
-6.53
-9.47
-12.04
-14.70
-17.97
-22.43
-28.49
-36.22
-45.27
-54.65
-62.86
-68.16
-68.88
-64.00
-53.40
-37.97
-19.40
0.24
18.97
35.21
47.94
56.62
61.15
61.76
58.97
53.62
46.78
39.51
32.68
26.82
21.98
17.89
14.08
10.17
5.94
1.46
-3.01
-7.27
-11.24
-15.12
-19.47
-24.99
-32.23
-41.35
-51.88
-62.58
-71.72
-77.31
-77.71
-72.03
-60.44
-44.16
-25.07
-5.30
13.28
29.24
41.73
50.26
54.66
55.06
51.97
46.29
39.24
32.10
25.84
20.97
17.39
14.64
12.18
9.58
6.70
3.72
0.89
-1.64
-3.97
-6.54
-10.02
-15.13
-22.36
-31.68
-42.41
-53.29
-62.55
-68.38
-69.30
-64.57
-54.29
-39.43
-21.67
-2.92
15.00
30.66
43.11
51.73
56.32
56.98
54.21
48.88
42.09
35.00
28.44
22.83
18.07
13.80
9.64
5.36
0.92
-3.49
-7.66
-11.41
-14.74
-17.88
-21.25
-25.50
-31.28
-38.86
-47.94
-57.49
-65.86
-71.16
-71.76
-66.61
-55.70
-39.92
-20.89
-0.65
18.78
35.69
48.88
57.69
61.97
61.99
58.28
51.74
43.37
34.25
25.33
17.37
10.64
5.12
0.51
-3.52
-7.17
-10.45
-13.18
-15.29
-16.80
-18.01
-19.50
-21.97
-26.09
-32.23
-40.38
-49.94
-59.73
-68.12
-73.23
-73.35
-67.38
-55.16
-37.66
-16.68
5.54
26.80
45.41
60.27
70.89
77.15
79.19
77.39
72.38
65.14
56.76
48.35
40.73
34.27
28.94
24.36
20.03
15.60
10.96
6.19
1.57
-2.65
-6.42
-10.03
-13.99
-19.00
-25.63
-34.14
-44.28
-55.15
-65.33
-73.07
-76.58
-74.56
-66.47
-52.77
-34.78
-14.40
6.40
25.88
42.70
55.98
65.12
69.87
70.32
67.02
60.86
53.01
44.60
36.57
29.51
23.56
18.52
14.10
9.97
5.88
1.80
-2.19
-5.95
-9.36
-12.46
-15.54
-19.02
-23.48
-29.41
-37.03
-46.19
-56.15
-65.62
-72.84
-75.97
-73.51
-64.71
-49.92
-30.52
-8.68
13.18
32.95
49.07
60.76
67.84
70.54
69.43
65.24
58.92
51.50
44.09
37.63
32.59
29.05
26.60
24.65
22.61
20.11
17.08
13.67
10.07
6.46
2.81
-1.08
-5.58
-11.15
-18.24
-27.18
-37.88
-49.70
-61.44
-71.39
-77.70
-78.73
-73.52
-62.06
-45.32
-25.14
-3.69
16.86
34.75
48.82
58.42
63.45
64.18
61.24
55.49
48.07
40.14
32.80
26.76
22.37
19.46
17.56
16.06
14.39
12.25
9.60
6.59
3.43
0.20
-3.24
-7.27
-12.44
-19.28
-28.21
-39.25
-51.92
-65.10
-77.06
-85.72
-89.05
-85.67
-75.19
-58.37
-36.98
-13.31
10.30
31.85
49.91
63.59
72.53
76.76
76.67
72.96
66.62
58.80
50.63
42.96
36.22
30.40
25.13
19.94
14.56
9.01
3.60
-1.23
-5.22
-8.45
-11.33
-14.54
-18.76
-24.46
-31.75
-40.27
-49.25
-57.51
-63.70
-66.41
-64.52
-57.48
-45.55
-29.75
-11.72
6.68
23.74
38.14
49.10
56.30
59.73
59.68
56.64
51.35
44.78
37.86
31.33
25.58
20.60
16.15
11.99
8.00
4.28
0.98
-1.78
-4.14
-6.42
-9.15
-13.02
-18.62
-26.35
-36.11
-47.10
-57.86
-66.48
-71.06
-70.23
-63.55
-51.59
-35.78
-18.04
-0.34
15.50
28.16
36.75
40.92
40.88
37.36
31.39
24.19
16.92
10.41
5.14
1.15
-1.85
-4.27
-6.42
-8.41
-10.20
-11.68
-12.91
-14.27
-16.44
-20.20
-26.19
-34.59
-44.92
-55.94
-65.94
-72.96
-75.27
-71.80
-62.29
-47.41
-28.64
-7.97
12.46
30.71
45.23
55.09
59.98
60.18
56.49
50.05
42.16
34.03
26.55
20.21
15.06
10.85
7.20
3.87
0.70
-2.29
-5.11
-7.89
-10.94
-14.85
-20.36
-28.09
-38.28
-50.43
-63.19
-74.53
-82.16
-84.12
-79.35
-68.00
-51.24
-31.01
-9.53
11.20
29.59
44.51
55.33
61.82
64.14
62.87
58.93
53.39
47.35
41.63
36.65
32.39
28.55
24.76
20.77
16.55
12.25
8.10
4.19
0.33
-3.96
-9.39
-16.68
-26.27
-38.06
-51.10
-63.70
-73.61
-78.55
-76.80
-67.77
-52.22
-32.06
-9.77
12.20
31.96
48.32
60.71
68.90
72.83
72.71
69.07
62.83
55.23
47.52
40.55
34.61
29.45
24.47
19.17
13.37
7.33
1.57
-3.39
-7.36
-10.61
-13.86
-18.08
-24.22
-32.93
-44.23
-57.33
-70.63
-81.92
-88.85
-89.38
-82.47
-68.32
-48.37
-24.88
-0.37
22.91
43.36
60.06
72.55
80.74
84.77
84.94
81.89
76.51
69.83
62.88
56.38
50.60
45.33
40.09
34.38
27.93
20.82
13.45
6.35
-0.05
-5.71
-10.94
-16.37
-22.73
-30.66
-40.46
-51.90
-64.02
-75.15
-83.11
-85.71
-81.31
-69.45
-51.03
-28.17
-3.59
20.06
40.77
57.43
69.65
77.48
81.15
81.01
77.55
71.47
63.79
55.64
48.10
41.88
37.21
33.82
31.17
28.73
26.25
23.68
21.18
18.85
16.64
14.21
11.09
6.83
1.02
-6.68
-16.36
-27.82
-40.23
-52.12
-61.32
-65.51
-62.79
-52.40
-34.93
-12.30
12.77
37.52
59.73
77.99
91.67
100.71
105.31
105.71
102.34
95.85
87.29
77.93
69.16
62.03
57.06
54.15
52.74
52.03
51.20
49.76
47.48
44.47
40.94
37.16
33.25
28.99
23.71
16.30
5.51
-9.55
-28.94
-51.44
-74.74
-95.77
-111.58
-120.02
-120.28
-112.85
-99.30
-81.71
-62.31
-43.10
-25.81
-11.75
-1.75
3.92
5.61
4.15
0.74
-3.35
-7.07
-9.74
-11.09
-11.24
-10.57
-9.51
-8.55
-7.98
-7.97
-8.52
-9.54
-10.98
-12.82
-15.12
-18.00
-21.62
-26.26
-32.17
-39.63
-48.54
-58.36
-67.82
-75.05
-78.00
-74.96
-65.19
-49.12
-28.43
-5.50
17.12
37.24
53.43
64.98
71.77
74.14
72.63
67.94
60.96
52.72
44.33
36.76
30.71
26.43
23.76
22.25
21.36
20.56
19.51
17.98
15.90
13.24
10.01
6.20
1.76
-3.40
-9.44
-16.64
-25.27
-35.43
-46.77
-58.35
-68.57
-75.45
-77.06
-72.25
-60.96
-44.39
-24.66
-4.20
14.80
30.87
43.29
51.83
56.58
57.76
55.70
50.96
44.32
36.79
29.33
22.63
17.05
12.50
8.71
5.36
2.28
-0.56
-3.10
-5.31
-7.29
-9.28
-11.63
-14.72
-18.85
-24.26
-31.10
-39.40
-48.99
-59.25
-69.03
-76.72
-80.57
-79.10
-71.61
-58.41
-40.86
-20.93
-0.79
17.64
32.88
44.06
50.82
53.24
51.79
47.21
40.44
32.57
24.63
17.44
11.47
6.78
3.09
-0.02
-2.89
-5.67
-8.27
-10.52
-12.32
-13.85
-15.58
-18.19
-22.32
-28.46
-36.69
-46.55
-57.07
-66.79
-74.03
-77.16
-75.02
-67.19
-54.21
-37.44
-18.77
-0.15
16.74
30.72
41.08
47.58
50.31
49.71
46.45
41.40
35.46
29.42
23.83
18.90
14.64
10.86
7.39
4.06
0.84
-2.20
-5.03
-7.64
-10.30
-13.45
-17.76
-23.76
-31.65
-40.93
-50.42
-58.36
-62.92
-62.64
-56.80
-45.69
-30.38
-12.55
5.95
23.36
38.22
49.50
56.58
59.38
58.25
53.96
47.53
40.01
32.25
24.81
17.91
11.55
5.60
-0.02
-5.22
-9.82
-13.61
-16.46
-18.49
-20.09
-21.95
-24.82
-29.28
-35.41
-42.65
-49.73
-54.99
-56.78
-53.87
-45.88
-33.36
-17.68
-0.61
16.03
30.71
42.38
50.44
54.74
55.46
53.08
48.29
41.95
34.90
27.84
21.20
15.12
9.58
4.54
-0.08
-4.17
-7.65
-10.53
-12.98
-15.40
-18.36
-22.47
-28.21
-35.62
-44.11
-52.52
-59.15
-62.21
-60.24
-52.69
-39.98
-23.57
-5.48
12.18
27.66
39.89
48.33
52.94
53.91
51.65
46.71
39.89
32.10
24.25
17.04
10.77
5.44
0.86
-3.13
-6.56
-9.41
-11.70
-13.66
-15.77
-18.69
-23.09
-29.44
-37.84
-47.83
-58.30
-67.57
-73.67
-74.79
-69.85
-58.77
-42.58
-23.20
-2.83
16.44
33.05
46.02
54.93
59.78
60.91
58.96
54.79
49.37
43.52
37.76
32.20
26.73
21.07
15.12
9.04
3.13
-2.28
-7.11
-11.58
-16.25
-21.83
-29.01
-38.05
-48.68
-59.98
-70.38
-77.98
-80.94
-77.97
-68.63
-53.58
-34.38
-13.19
7.74
26.48
41.66
52.49
58.66
60.36
58.07
52.63
45.21
36.95
28.87
21.63
15.38
9.96
5.04
0.38
-4.07
-8.14
-11.61
-14.32
-16.45
-18.53
-21.31
-25.70
-32.32
-41.19
-51.45
-61.40
-68.83
-71.61
-68.25
-58.47
-43.13
-24.00
-3.30
16.87
34.86
49.56
60.25
66.55
68.36
65.99
60.17
52.09
43.18
34.80
27.88
22.74
19.09
16.32
13.81
11.15
8.21
5.16
2.13
-0.88
-4.12
-8.06
-13.36
-20.61
-30.32
-42.50
-56.48
-70.83
-83.38
-91.59
-93.31
-87.36
-73.93
-54.59
-31.84
-8.27
13.88
33.15
48.74
60.27
67.56
70.58
69.56
65.10
58.17
50.06
42.05
35.16
29.81
25.83
22.65
19.55
16.00
11.89
7.42
3.01
-1.03
-4.68
-8.11
-11.78
-16.23
-21.95
-29.32
-38.51
-49.26
-60.72
-71.35
-79.08
-81.71
-77.56
-66.06
-48.03
-25.56
-1.46
21.44
40.98
55.95
66.07
71.68
73.43
72.04
68.23
62.71
56.22
49.53
43.26
37.83
33.43
30.00
27.34
25.20
23.37
21.59
19.63
17.21
14.19
10.51
6.28
1.68
-3.22
-8.53
-14.65
-22.18
-31.67
-43.33
-56.73
-70.57
-82.81
-91.02
-92.99
-87.32
-73.89
-54.03
-30.07
-4.85
18.97
39.48
55.61
67.16
74.36
77.69
77.71
74.96
70.07
63.74
56.72
49.73
43.39
38.04
33.88
30.87
28.90
27.66
26.86
26.13
25.10
23.48
21.07
17.81
13.82
9.21
4.10
-1.62
-8.25
-16.27
-26.17
-38.11
-51.64
-65.50
-77.69
-85.77
-87.52
-81.55
-67.80
-47.66
-23.60
1.47
24.97
45.12
61.07
72.71
80.34
84.37
85.24
83.46
79.66
74.61
68.98
63.31
57.83
52.53
47.31
42.19
37.32
32.94
29.18
26.01
23.05
19.81
15.73
10.50
4.08
-3.27
-11.09
-18.95
-26.66
-34.36
-42.45
-51.40
-61.36
-71.95
-82.00
-89.78
-93.36
-91.08
-82.19
-67.00
-46.99
-24.42
-1.76
18.83
35.77
48.33
56.44
60.57
61.43
59.89
56.77
52.83
48.65
44.70
41.16
38.00
35.05
32.17
29.22
26.21
23.12
19.89
16.34
12.17
7.13
1.14
-5.71
-13.02
-20.33
-27.22
-33.54
-39.49
-45.53
-52.18
-59.75
-68.02
-76.10
-82.43
-85.21
-82.78
-74.29
-59.88
-40.84
-19.31
2.27
21.74
37.59
49.17
56.43
59.72
59.57
56.56
51.36
44.79
37.74
31.08
25.49
21.32
18.57
16.96
16.09
15.63
15.32
15.01
14.54
13.76
12.43
10.30
7.14
2.75
-3.03
-10.32
-19.11
-29.19
-39.96
-50.44
-59.28
-64.96
-66.21
-62.21
-52.93
-39.11
-22.20
-4.04
13.44
28.57
40.12
47.43
50.40
49.37
45.07
38.39
30.33
21.78
13.50
5.99
-0.57
-6.25
-11.29
-16.00
-20.59
-25.09
-29.34
-33.10
-36.21
-38.68
-40.70
-42.63
-44.81
-47.47
-50.65
-54.08
-57.18
-59.09
-58.75
-55.11
-47.49
-35.73
-20.42
-2.83
15.39
32.48
46.98
57.87
64.66
67.36
66.35
62.39
56.43
49.56
42.76
36.78
31.93
28.04
24.58
20.91
16.51
11.15
5.04
-1.49
-8.07
-14.53
-21.07
-28.07
-36.04
-45.30
-55.74
-66.75
-77.16
-85.45
-90.05
-89.67
-83.62
-72.04
-55.82
-36.51
-15.97
3.96
21.62
35.83
45.74
51.04
51.83
48.67
42.53
34.65
26.35
18.64
12.09
6.73
2.21
-2.01
-6.26
-10.61
-14.82
-18.56
-21.64
-24.24
-26.84
-30.20
-35.10
-41.99
-50.77
-60.64
-70.11
-77.25
-80.20
-77.56
-68.93
-54.88
-36.88
-16.86
3.29
22.00
38.12
50.93
59.91
64.80
65.66
62.95
57.56
50.62
43.29
36.36
30.10
24.40
18.85
13.04
6.82
0.29
-6.17
-12.18
-17.52
-22.27
-26.94
-32.26
-39.09
-47.90
-58.60
-70.24
-81.10
-89.04
-91.91
-88.30
-77.82
-61.25
-40.38
-17.43
5.44
26.51
44.60
59.05
69.46
75.67
77.77
76.18
71.64
65.24
58.04
50.90
44.34
38.40
32.91
27.60
22.29
17.05
12.07
7.59
3.70
0.26
-3.28
-7.68
-13.81
-22.35
-33.38
-46.28
-59.53
-70.92
-78.01
-78.77
-72.22
-58.65
-39.64
-17.48
5.35
26.80
45.50
60.72
72.10
79.49
82.91
82.51
78.84
72.81
65.56
58.13
51.23
45.02
39.25
33.49
27.36
20.82
14.12
7.69
1.98
-2.84
-6.87
-10.62
-14.80
-20.19
-27.46
-36.95
-48.45
-60.98
-72.92
-82.13
-86.44
-84.25
-74.92
-59.14
-38.73
-16.16
6.06
25.91
42.17
54.33
62.35
66.43
66.94
64.38
59.48
53.24
46.74
40.92
36.35
33.05
30.68
28.61
26.29
23.43
20.05
16.32
12.52
8.77
4.93
0.68
-4.44
-10.94
-19.21
-29.43
-41.44
-54.56
-67.52
-78.38
-84.92
-85.14
-77.84
-63.06
-42.27
-17.98
6.96
30.02
49.49
64.54
75.06
81.22
83.39
81.96
77.43
70.55
62.23
53.44
45.03
37.58
31.30
26.12
21.82
18.15
14.88
11.85
8.90
5.90
2.65
-1.09
-5.59
-11.06
-17.64
-25.48
-34.69
-45.34
-57.28
-69.84
-81.65
-90.71
-94.71
-91.79
-81.11
-63.34
-40.56
-15.60
8.64
29.89
46.86
59.10
66.75
70.24
70.20
67.40
62.72
57.13
51.45
46.29
41.92
38.30
35.29
32.64
30.09
27.46
24.55
21.25
17.51
13.34
8.67
3.39
-2.69
-9.74
-17.80
-26.86
-36.83
-47.68
-59.31
-71.27
-82.59
-91.62
-96.28
-94.62
-85.53
-69.26
-47.42
-22.62
2.31
24.99
43.90
58.38
68.39
74.18
76.13
74.76
70.73
64.87
58.11
51.28
44.98
39.54
35.02
31.36
28.40
25.98
23.83
21.72
19.38
16.61
13.24
9.16
4.31
-1.41
-8.09
-15.84
-24.74
-34.89
-46.19
-58.18
-69.87
-79.68
-85.72
-86.25
-80.21
-67.61
-49.70
-28.60
-6.73
13.69
31.11
44.63
54.05
59.56
61.60
60.75
57.66
53.06
47.71
42.31
37.36
33.16
29.70
26.76
23.99
21.07
17.84
14.26
10.50
6.74
3.12
-0.43
-4.17
-8.54
-13.99
-20.97
-29.77
-40.40
-52.42
-64.83
-76.11
-84.32
-87.53
-84.38
-74.48
-58.59
-38.52
-16.59
4.89
24.14
40.03
52.10
60.36
65.09
66.63
65.47
62.18
57.35
51.65
45.70
39.96
34.69
29.98
25.72
21.73
17.74
13.57
9.12
4.41
-0.50
-5.57
-10.82
-16.42
-22.62
-29.73
-38.07
-47.78
-58.64
-69.83
-79.93
-87.12
-89.52
-85.79
-75.51
-59.44
-39.25
-17.21
4.42
23.69
39.24
50.33
56.83
59.02
57.58
53.36
47.28
40.32
33.32
26.95
21.63
17.41
14.04
11.07
8.02
4.54
0.50
-4.05
-8.89
-13.87
-18.99
-24.41
-30.49
-37.60
-46.06
-55.93
-66.86
-77.94
-87.82
-94.75
-96.92
-92.96
-82.27
-65.33
-43.65
-19.49
4.69
26.66
44.89
58.50
67.26
71.35
71.22
67.50
60.95
52.52
43.24
34.09
25.80
18.79
13.09
8.47
4.61
1.28
-1.60
-3.92
-5.61
-6.74
-7.70
-9.13
-11.83
-16.50
-23.51
-32.69
-43.24
-53.74
-62.41
-67.38
-67.17
-61.02
-49.09
-32.41
-12.71
8.00
27.81
45.08
58.70
67.99
72.77
73.35
70.38
64.80
57.67
50.01
42.62
35.99
30.25
25.22
20.60
16.08
11.54
7.04
2.85
-0.85
-4.05
-6.99
-10.16
-14.19
-19.69
-26.97
-35.85
-45.46
-54.42
-61.02
-63.65
-61.27
-53.64
-41.39
-25.84
-8.62
8.60
24.33
37.38
46.93
52.52
54.09
52.01
47.07
40.28
32.77
25.47
19.02
13.71
9.40
5.71
2.24
-1.29
-4.94
-8.54
-11.93
-15.01
-17.96
-21.26
-25.57
-31.48
-39.28
-48.65
-58.62
-67.72
-74.14
-76.28
-73.10
-64.42
-50.90
-33.96
-15.35
3.18
20.14
34.37
45.09
51.87
54.60
53.62
49.60
43.56
36.64
29.78
23.60
18.23
13.45
8.96
4.50
0.05
-4.23
-8.04
-11.25
-13.93
-16.53
-19.77
-24.42
-31.09
-39.93
-50.53
-61.82
-72.14
-79.59
-82.41
-79.40
-70.27
-55.74
-37.40
-17.27
2.56
20.31
34.73
45.06
51.08
52.98
51.27
46.83
40.74
34.04
27.60
21.87
16.93
12.52
8.32
4.10
-0.17
-4.36
-8.28
-11.84
-15.15
-18.59
-22.69
-28.11
-35.23
-43.98
-53.64
-62.79
-69.53
-71.93
-68.63
-59.09
-43.95
-24.72
-3.55
17.37
36.17
51.54
62.70
69.30
71.44
69.49
64.20
56.73
48.34
40.23
33.20
27.51
22.95
18.98
15.09
10.99
6.69
2.31
-2.01
-6.36
-11.11
-16.76
-23.87
-32.75
-43.21
-54.40
-64.89
-72.85
-76.50
-74.53
-66.57
-53.23
-35.99
-16.81
2.28
19.55
33.70
43.94
49.92
51.83
50.33
46.35
41.07
35.42
30.04
25.16
20.71
16.48
12.39
8.40
4.57
0.96
-2.41
-5.66
-8.99
-12.73
-17.44
-23.59
-31.52
-41.02
-51.19
-60.41
-66.61
-67.90
-63.01
-51.83
-35.36
-15.43
5.76
26.17
44.21
58.80
69.31
75.46
77.21
74.88
69.25
61.43
52.79
44.46
37.09
30.68
24.79
18.81
12.39
5.59
-1.19
-7.42
-12.85
-17.60
-22.23
-27.56
-34.37
-43.16
-53.87
-65.70
-77.04
-85.73
-89.47
-86.38
-75.67
-57.94
-35.01
-9.55
15.63
38.20
56.66
70.26
78.84
82.63
82.01
77.72
70.80
62.50
54.10
46.57
40.35
35.28
30.79
26.26
21.23
15.69
9.93
4.40
-0.61
-5.11
-9.51
-14.58
-21.19
-29.96
-41.09
-54.09
-67.75
-80.23
-89.24
-92.58
-88.64
-76.92
-58.31
-34.85
-9.31
15.60
37.92
56.50
71.00
81.51
88.08
90.81
89.84
85.65
79.12
71.38
63.55
56.34
49.95
44.09
38.24
31.94
25.03
17.68
10.22
3.01
-3.78
-10.20
-16.44
-22.86
-29.86
-37.84
-47.10
-57.72
-69.28
-80.59
-89.76
-94.47
-92.56
-82.88
-65.73
-42.88
-17.17
8.38
31.25
49.85
63.61
72.57
77.10
77.70
74.97
69.69
62.88
55.69
49.11
43.81
39.97
37.46
35.94
35.05
34.43
33.77
32.72
30.89
27.94
23.66
17.99
11.04
2.90
-6.47
-17.18
-29.36
-43.04
-57.81
-72.81
-86.58
-97.25
-102.82
-101.56
-92.51
-75.97
-53.48
-27.66
-1.55
22.08
41.35
55.42
64.34
68.76
69.46
67.24
62.89
57.23
50.96
44.74
39.05
34.14
30.17
27.21
25.23
24.12
23.59
23.18
22.35
20.63
17.76
13.66
8.47
2.37
-4.44
-11.98
-20.43
-30.11
-41.30
-53.95
-67.43
-80.29
-90.46
-95.57
-93.66
-83.80
-66.47
-43.55
-17.87
7.63
30.42
48.89
62.37
70.85
74.72
74.59
71.20
65.42
58.26
50.75
43.77
37.90
33.33
29.96
27.51
25.63
23.98
22.34
20.45
18.19
15.44
12.10
8.09
3.37
-1.96
-7.78
-13.99
-20.63
-28.01
-36.62
-46.88
-58.75
-71.36
-82.93
-91.05
-93.32
-88.12
-75.17
-55.75
-32.32
-7.86
14.83
33.79
48.02
57.36
62.26
63.37
61.41
57.19
51.46
45.01
38.58
32.77
27.97
24.30
21.68
19.77
18.22
16.61
14.67
12.29
9.50
6.37
3.02
-0.59
-4.59
-9.13
-14.48
-20.86
-28.55
-37.85
-48.79
-60.90
-73.02
-83.30
-89.52
-89.72
-82.84
-69.05
-49.85
-27.54
-4.66
16.61
34.85
49.30
59.80
66.35
69.06
68.16
64.13
57.79
50.21
42.54
35.70
30.08
25.62
21.92
18.52
15.21
11.94
8.79
5.83
2.95
-0.12
-3.69
-8.09
-13.60
-20.49
-28.98
-39.08
-50.39
-61.93
-72.11
-78.99
-80.76
-76.19
-65.05
-48.34
-27.92
-6.15
14.74
33.01
47.53
57.76
63.57
65.16
62.95
57.65
50.24
41.81
33.44
25.91
19.54
14.23
9.61
5.26
0.92
-3.37
-7.41
-10.93
-13.81
-16.23
-18.58
-21.53
-25.70
-31.54
-39.16
-48.21
-57.78
-66.45
-72.48
-74.24
-70.56
-61.17
-46.75
-28.87
-9.58
9.13
25.63
38.83
48.14
53.35
54.54
52.05
46.53
38.96
30.44
22.10
14.75
8.83
4.24
0.62
-2.50
-5.49
-8.52
-11.52
-14.34
-16.95
-19.56
-22.73
-27.15
-33.53
-42.18
-52.78
-64.14
-74.39
-81.44
-83.33
-78.94
-68.28
-52.33
-32.86
-11.99
8.22
26.04
40.21
49.97
55.14
56.03
53.44
48.43
42.12
35.53
29.31
23.68
18.55
13.60
8.45
2.97
-2.71
-8.30
-13.48
-18.13
-22.42
-26.85
-32.03
-38.54
-46.57
-55.83
-65.49
-74.10
-79.98
-81.49
-77.49
-67.63
-52.61
-33.97
-13.78
5.68
22.42
34.94
42.46
44.91
42.94
37.64
30.38
22.46
14.87
8.23
2.66
-1.95
-5.92
-9.51
-12.85
-15.96
-18.74
-21.12
-23.16
-25.20
-27.82
-31.68
-37.23
-44.41
-52.46
-59.92
-64.97
-65.85
-61.39
-51.28
-36.19
-17.57
2.58
22.19
39.50
53.21
62.68
67.77
68.89
66.75
62.28
56.41
49.89
43.27
36.85
30.68
24.79
19.22
14.06
9.33
4.99
0.86
-3.38
-8.20
-14.05
-21.32
-30.08
-39.98
-50.01
-58.68
-64.27
-65.27
-60.77
-50.78
-36.26
-18.91
-0.88
15.74
29.26
38.62
43.48
44.07
41.13
35.64
28.62
20.94
13.32
6.21
-0.15
-5.69
-10.41
-14.38
-17.62
-20.17
-22.07
-23.51
-24.79
-26.38
-28.82
-32.42
-37.13
-42.28
-46.59
-48.44
-46.22
-38.92
-26.55
-10.13
8.48
27.08
43.52
56.21
64.25
67.50
66.46
62.06
55.46
47.78
39.95
32.51
25.74
19.69
14.31
9.55
5.37
1.67
-1.62
-4.68
-7.79
-11.36
-15.89
-21.91
-29.62
-38.61
-47.67
-54.87
-57.90
-54.79
-44.54
-27.55
-5.60
18.56
41.83
61.54
75.79
83.75
85.56
82.11
74.70
64.73
53.45
41.75
30.17
18.93
8.08
-2.31
-12.00
-20.56
-27.58
-32.82
-36.39
-38.85
-41.03
-43.83
-47.99
-53.70
-60.49
-67.11
-71.78
-72.46
-67.49
-56.08
-38.67
-16.89
6.82
29.81
49.77
65.20
75.39
80.44
80.99
77.97
72.43
65.31
57.39
49.17
40.96
32.93
25.12
17.66
10.72
4.47
-1.00
-5.70
-9.92
-14.17
-19.14
-25.53
-33.71
-43.43
-53.58
-62.28
-67.28
-66.59
-59.12
-45.06
-25.87
-3.86
18.38
38.63
55.32
67.62
75.27
78.49
77.82
74.13
68.51
62.08
55.81
50.23
45.35
40.80
36.07
30.79
24.93
18.70
12.46
6.50
0.87
-4.70
-10.78
-18.07
-27.13
-37.99
-49.94
-61.45
-70.36
-74.56
-72.47
-63.68
-48.98
-30.11
-9.33
11.23
29.90
45.59
57.75
66.19
71.02
72.54
71.31
68.08
63.70
58.96
54.39
50.11
45.91
41.43
36.42
30.95
25.44
20.37
16.11
12.59
9.20
4.95
-1.27
-10.19
-21.81
-35.24
-48.69
-59.86
-66.47
-66.82
-60.29
-47.41
-29.78
-9.60
10.89
29.80
45.84
58.27
66.74
71.13
71.57
68.48
62.62
55.06
46.93
39.14
32.26
26.40
21.45
17.21
13.54
10.37
7.73
5.59
3.83
2.17
0.10
-3.02
-7.90
-15.07
-24.61
-35.93
-47.69
-57.94
-64.64
-66.03
-61.13
-50.08
-33.99
-14.74
5.51
24.77
41.53
54.88
64.42
70.14
72.18
70.90
66.88
60.89
53.92
46.91
40.52
34.99
30.09
25.30
20.17
14.56
8.67
2.99
-1.96
-5.96
-9.24
-12.40
-16.35
-21.93
-29.69
-39.69
-51.27
-63.06
-73.22
-79.69
-80.67
-75.21
-63.36
-46.24
-25.78
-4.26
16.19
33.90
47.86
57.55
62.85
63.94
61.18
55.19
46.89
37.42
27.97
19.54
12.73
7.60
3.76
0.64
-2.32
-5.37
-8.51
-11.53
-14.24
-16.55
-18.65
-20.88
-23.72
-27.73
-33.25
-40.36
-48.66
-57.17
-64.47
-68.84
-68.77
-63.23
-52.12
-36.31
-17.47
2.19
20.51
35.76
46.90
53.60
56.02
54.67
50.23
43.48
35.34
26.79
18.77
12.03
6.94
3.47
1.38
0.19
-0.67
-1.60
-2.90
-4.65
-6.77
-9.05
-11.33
-13.54
-15.92
-18.87
-23.01
-28.82
-36.36
-45.10
-53.78
-60.76
-64.25
-62.87
-55.99
-43.87
-27.66
-9.11
9.75
27.02
41.23
51.45
57.36
59.15
57.34
52.58
45.69
37.44
28.66
20.05
12.25
5.61
0.25
-3.89
-7.08
-9.62
-11.77
-13.64
-15.34
-16.86
-18.30
-19.86
-21.87
-24.76
-28.90
-34.49
-41.39
-49.13
-56.84
-63.44
-67.71
-68.43
-64.72
-56.15
-43.10
-26.70
-8.66
9.05
24.76
37.23
45.87
50.57
51.58
49.31
44.32
37.36
29.40
21.41
14.27
8.52
4.24
1.19
-1.12
-3.07
-4.97
-6.91
-8.88
-10.89
-12.97
-15.22
-17.83
-20.96
-24.84
-29.73
-35.81
-43.12
-51.33
-59.60
-66.64
-70.83
-70.71
-65.31
-54.67
-39.72
-22.20
-4.18
12.53
26.50
37.01
43.80
46.98
46.96
44.27
39.61
33.74
27.39
21.19
15.50
10.53
6.24
2.49
-0.87
-3.90
-6.70
-9.33
-11.86
-14.44
-17.15
-20.21
-23.79
-28.11
-33.40
-39.64
-46.50
-53.25
-58.70
-61.45
-60.28
-54.47
-44.03
-29.80
-13.22
3.95
20.05
33.68
43.90
50.10
52.13
50.15
44.73
36.78
27.46
18.02
9.42
2.30
-3.22
-7.38
-10.52
-12.96
-14.83
-16.22
-17.29
-18.31
-19.74
-22.03
-25.57
-30.60
-37.16
-44.98
-53.48
-61.58
-67.81
-70.57
-68.54
-61.08
-48.53
-32.15
-13.73
4.71
21.45
35.15
44.92
50.30
51.23
48.05
41.50
32.77
23.14
13.77
5.50
-1.35
-6.90
-11.44
-15.24
-18.42
-20.90
-22.65
-23.83
-24.89
-26.54
-29.59
-34.66
-41.99
-51.29
-61.61
-71.53
-79.18
-82.62
-80.28
-71.40
-56.38
-36.70
-14.60
7.54
27.62
44.24
56.62
64.46
67.82
67.03
62.80
56.17
48.39
40.54
33.25
26.59
20.19
13.64
6.74
-0.30
-7.02
-12.92
-17.81
-21.93
-25.89
-30.62
-37.05
-45.90
-57.37
-70.89
-84.99
-97.40
-105.51
-106.99
-100.50
-86.01
-64.85
-39.31
-12.12
14.16
37.53
56.62
70.66
79.35
82.78
81.51
76.42
68.69
59.53
50.02
40.87
32.39
24.50
17.01
9.81
3.00
-3.13
-8.23
-12.13
-15.12
-17.85
-21.29
-26.48
-34.17
-44.57
-57.13
-70.46
-82.48
-90.82
-93.24
-88.21
-75.45
-55.94
-31.76
-5.58
20.01
42.95
61.87
76.08
85.27
89.41
88.78
83.97
76.05
66.41
56.55
47.63
40.23
34.23
29.02
23.97
18.67
13.18
7.89
3.18
-0.81
-4.32
-8.00
-12.68
-19.10
-27.83
-38.92
-51.75
-64.94
-76.34
-83.50
-84.17
-77.05
-62.18
-41.03
-16.09
9.79
33.98
54.59
70.55
81.41
87.27
88.48
85.65
79.61
71.38
62.13
53.01
44.98
38.57
33.89
30.60
28.12
25.87
23.47
20.75
17.82
14.78
11.63
8.19
4.04
-1.32
-8.42
-17.65
-29.15
-42.57
-56.93
-70.56
-81.15
-86.38
-84.34
-74.23
-56.67
-33.56
-7.70
17.97
40.98
59.72
73.53
82.43
86.92
87.61
85.15
80.30
73.88
66.76
59.86
53.77
48.88
45.15
42.30
39.84
37.28
34.20
30.32
25.53
19.86
13.49
6.56
-0.81
-8.63
-17.03
-26.29
-36.72
-48.52
-61.46
-74.68
-86.57
-94.95
-97.51
-92.46
-79.20
-58.61
-32.92
-5.15
21.60
44.91
63.26
76.09
83.49
85.96
84.23
79.13
71.67
62.92
53.95
45.60
38.37
32.48
27.83
24.27
21.64
19.83
18.60
17.71
16.78
15.39
13.28
10.27
6.34
1.58
-3.96
-10.34
-17.77
-26.57
-36.89
-48.55
-60.72
-71.93
-80.17
-83.33
-79.77
-68.85
-51.16
-28.57
-3.71
20.58
41.91
58.69
70.24
76.64
78.51
76.69
72.12
65.85
58.84
51.94
45.76
40.53
36.28
32.87
30.25
28.32
27.00
26.08
25.19
23.70
21.15
17.25
12.06
5.91
-0.72
-7.41
-13.93
-20.30
-26.75
-33.65
-41.28
-49.64
-58.24
-66.06
-71.63
-73.27
-69.66
-60.18
-45.27
-26.34
-5.54
14.81
32.80
47.11
57.14
62.86
64.53
62.69
58.05
51.48
44.06
36.77
30.35
25.11
20.97
17.67
14.92
12.57
10.61
9.05
7.79
6.53
4.93
2.69
-0.34
-4.14
-8.55
-13.44
-18.73
-24.46
-30.84
-38.11
-46.37
-55.50
-64.84
-73.28
-79.35
-81.43
-78.23
-69.18
-54.65
-35.90
-14.89
6.16
25.24
40.78
51.86
58.30
60.47
59.14
55.26
49.83
43.68
37.42
31.48
26.13
21.53
17.74
14.77
12.53
10.85
9.50
8.28
6.92
5.16
2.79
-0.31
-4.14
-8.55
-13.38
-18.50
-24.00
-30.19
-37.46
-46.01
-55.67
-65.68
-74.66
-80.95
-82.90
-79.34
-69.96
-55.42
-37.22
-17.35
2.08
19.36
33.34
43.50
49.77
52.41
51.91
48.89
44.05
38.22
32.16
26.45
21.39
17.08
13.45
10.42
7.92
5.89
4.17
2.52
0.64
-1.65
-4.48
-7.78
-11.46
-15.54
-20.23
-25.83
-32.70
-40.94
