1523187230.00
64.000000
-0.00
-0.00
-0.00
-0.00
-0.00
-0.00
-0.00
-0.00
-0.00
-0.00
0.00
0.01
0.01
-0.00
-0.03
-0.05
-0.05
0.00
0.13
0.36
0.66
1.01
1.37
1.72
2.06
2.40
2.79
3.24
3.80
4.42
5.06
5.66
6.20
6.68
7.15
7.68
8.31
9.14
10.09
11.04
11.88
12.56
13.14
13.76
14.65
15.96
17.91
20.32
22.90
25.38
27.58
29.57
31.68
34.32
37.81
42.54
48.15
54.10
59.83
64.97
69.58
74.14
79.34
85.71
93.76
103.00
112.62
121.73
129.77
136.75
143.30
150.75
157.77
166.64
177.95
191.79
206.97
220.57
228.25
225.36
208.53
176.87
132.76
80.05
23.07
-34.94
-92.44
-149.16
-205.23
-260.37
-313.74
-363.87
-409.83
-450.91
-486.50
-515.74
-537.23
-549.22
-549.96
-538.37
-514.21
-478.67
-433.88
-382.45
-327.02
-269.84
-212.63
-156.66
-102.95
-52.37
-5.90
35.58
71.43
101.35
125.50
144.38
158.69
169.15
176.37
180.75
182.57
182.07
179.51
175.23
169.65
163.18
156.15
148.81
141.30
133.69
126.02
118.33
110.69
103.16
95.80
88.68
81.83
75.25
68.95
62.95
57.25
51.86
46.78
42.03
37.59
33.45
29.61
26.07
22.81
19.83
17.11
14.67
12.48
10.54
8.83
7.35
6.07
4.97
4.05
3.27
2.62
2.09
1.65
1.30
1.01
0.79
0.61
0.48
0.37
0.29
0.24
0.20
0.18
0.17
0.18
0.19
0.21
0.24
0.27
0.31
0.35
0.39
0.44
0.48
0.53
0.58
0.63
0.69
0.75
0.81
0.88
0.95
1.04
1.13
1.23
1.35
1.48
1.62
1.78
1.96
2.16
2.38
2.63
2.90
3.19
3.52
3.88
4.27
4.70
5.16
5.66
6.19
6.77
7.39
8.06
8.76
9.51
10.31
11.15
12.03
12.96
13.93
14.97
16.07
17.23
18.44
19.69
20.94
22.14
23.19
24.01
24.47
24.46
23.86
22.58
20.59
17.89
14.55
10.65
6.38
1.92
-2.51
-6.70
-10.48
-13.68
-16.21
-18.03
-19.13
-19.55
-19.37
-18.70
-17.67
-16.41
-15.02
-13.59
-12.15
-10.68
-9.14
-7.52
-5.80
-3.99
-2.12
-0.19
1.77
3.79
5.96
8.37
10.97
13.74
16.62
19.51
22.37
25.14
27.89
30.78
34.08
37.73
41.67
45.83
50.04
54.15
58.12
62.08
66.37
71.54
77.52
84.25
91.38
98.42
104.80
110.10
114.22
117.44
120.30
122.60
124.03
123.88
121.19
114.84
103.85
87.34
64.18
37.93
10.10
-18.42
-47.28
-76.51
-106.18
-136.48
-167.60
-199.70
-232.38
-264.94
-295.08
-319.25
-333.63
-335.69
-325.22
-304.59
-277.82
-249.08
-222.00
-198.48
-179.15
-164.10
-153.35
-146.59
-142.58
-138.71
-131.28
-117.02
-94.12
-63.21
-27.31
9.04
41.45
67.00
84.81
95.77
101.44
103.34
102.43
99.20
94.03
87.64
81.09
75.53
71.88
70.44
70.95
72.69
74.81
76.59
77.57
77.53
76.41
74.18
70.75
66.08
60.19
53.34
45.98
38.65
31.76
25.46
19.44
13.19
6.30
-1.35
-9.36
-17.04
-23.67
-28.94
-33.08
-36.82
-41.18
-47.15
-55.25
-65.25
-75.90
-84.96
-89.63
-87.28
-76.41
-57.39
-32.49
-5.28
20.44
41.80
57.37
67.16
72.05
73.10
71.19
66.96
61.13
54.60
48.48
43.80
41.21
40.76
41.93
43.90
45.90
47.47
48.57
49.41
50.14
50.65
50.52
49.09
45.85
40.68
34.01
26.70
19.77
13.89
9.19
5.21
1.13
-3.77
-9.80
-16.71
-23.79
-30.24
-35.55
-39.60
-42.78
-45.76
-49.37
-54.40
-61.41
-70.45
-80.65
-90.05
-95.85
-95.06
-85.65
-67.37
-42.12
-13.39
14.79
39.09
57.52
69.63
75.94
77.43
75.08
69.78
62.50
54.34
46.53
40.13
35.84
33.85
33.82
35.08
36.99
39.05
41.07
43.02
44.79
46.02
46.13
44.43
40.51
34.50
27.11
19.38
12.32
6.46
1.65
-2.71
-7.39
-12.90
-19.22
-25.92
-32.38
-38.05
-42.72
-46.55
-50.04
-53.93
-59.00
-65.79
-74.18
-83.09
-90.34
-93.14
-88.88
-76.20
-55.70
-29.83
-2.24
23.37
44.32
59.34
68.42
72.26
71.76
67.75
61.09
52.77
43.95
35.84
29.40
25.16
23.18
23.12
24.48
26.77
29.55
32.43
34.96
36.65
36.94
35.41
31.94
26.84
20.75
14.45
8.49
3.06
-2.08
-7.35
-13.07
-19.32
-25.87
-32.25
-38.03
-42.93
-46.99
-50.58
-54.44
-59.47
-66.40
-75.30
-85.05
-93.38
-97.22
-93.76
-81.51
-61.05
-34.95
-7.02
18.85
39.81
54.47
62.86
65.83
64.45
59.72
52.48
43.56
33.98
24.76
16.90
11.08
7.57
6.21
6.61
8.31
10.96
14.34
18.33
22.83
27.63
32.37
36.61
39.83
41.48
41.07
38.20
32.73
24.83
15.03
4.16
-6.90
-17.36
-26.79
-35.19
-42.87
-50.42
-58.46
-67.45
-77.42
-87.63
-96.29
-100.75
-98.17
-86.57
-65.80
-37.93
-6.86
22.91
47.61
65.21
75.51
79.61
79.09
75.31
69.24
61.63
53.26
45.02
37.86
32.47
29.20
27.91
28.12
29.19
30.45
31.45
31.96
31.95
31.52
30.67
29.29
27.05
23.64
18.91
12.94
6.12
-0.99
-7.82
-14.01
-19.41
-24.15
-28.51
-32.88
-37.62
-43.08
-49.62
-57.41
-66.26
-75.30
-82.87
-86.75
-84.82
-75.86
-60.12
-39.34
-16.16
6.69
27.16
44.07
56.94
65.56
69.80
69.67
65.56
58.42
49.70
41.07
33.92
29.07
26.71
26.37
27.27
28.58
29.62
30.09
30.01
29.58
28.91
27.90
26.19
23.23
18.61
12.25
4.51
-3.91
-12.16
-19.55
-25.73
-30.84
-35.37
-40.00
-45.47
-52.35
-60.86
-70.55
-80.08
-87.20
-89.22
-83.80
-69.93
-48.54
-22.37
4.77
29.19
48.35
61.24
68.19
70.20
68.46
63.90
57.34
49.52
41.35
33.80
27.78
23.93
22.49
23.22
25.53
28.63
31.78
34.42
36.26
37.13
36.99
35.71
33.18
29.30
24.18
18.04
11.21
4.06
-3.10
-10.02
-16.49
-22.39
-27.65
-32.34
-36.67
-41.04
-45.92
-51.86
-59.15
-67.65
-76.31
-83.21
-85.87
-82.02
-70.42
-51.59
-27.76
-2.27
21.41
40.66
54.16
61.92
64.74
63.76
60.05
54.56
48.15
41.67
35.87
31.33
28.34
26.83
26.52
27.03
27.98
29.12
30.20
31.01
31.27
30.71
29.20
26.72
23.39
19.46
15.14
10.54
5.65
0.45
-5.06
-10.75
-16.36
-21.57
-26.08
-29.76
-32.68
-35.16
-37.72
-41.01
-45.66
-51.96
-59.55
-67.15
-72.71
-73.78
-68.44
-55.97
-37.37
-15.09
7.63
27.80
43.40
53.63
58.76
59.61
57.15
52.29
45.88
38.80
31.93
26.05
21.68
18.95
17.70
17.53
18.06
19.01
20.25
21.73
23.36
24.87
25.83
25.72
24.15
21.06
16.72
11.77
6.83
2.32
-1.72
-5.60
-9.74
-14.43
-19.59
-24.86
-29.66
-33.62
-36.63
-38.94
-41.08
-43.65
-47.19
-51.95
-57.74
-63.64
-68.02
-68.82
-64.20
-53.29
-36.73
-16.62
4.10
22.52
36.65
45.77
50.21
50.84
48.55
44.02
37.78
30.44
22.83
15.94
10.72
7.75
7.11
8.37
10.77
13.53
16.03
17.85
18.80
18.77
17.67
15.47
12.29
8.41
4.21
0.02
-3.99
-7.86
-11.75
-15.75
-19.77
-23.58
-26.87
-29.44
-31.33
-32.83
-34.38
-36.53
-39.75
-44.21
-49.58
-54.81
-58.23
-57.88
-52.24
-40.81
-24.57
-5.69
13.06
29.18
41.11
48.39
51.36
50.76
47.29
41.58
34.24
26.16
18.35
11.88
7.43
5.23
4.94
5.94
7.65
9.64
11.75
13.91
15.88
17.30
17.65
16.52
13.78
9.70
4.89
0.06
-4.24
-7.79
-10.77
-13.57
-16.63
-20.13
-23.93
-27.60
-30.68
-32.92
-34.40
-35.56
-37.05
-39.52
-43.41
-48.70
-54.83
-60.45
-63.72
-62.69
-55.96
-43.32
-26.00
-6.36
12.82
29.13
41.18
48.64
51.99
52.01
49.43
44.84
38.78
31.90
24.98
18.83
14.08
11.08
9.77
9.81
10.71
12.05
13.51
14.92
16.13
16.90
16.95
15.98
13.80
10.49
6.39
2.04
-2.06
-5.60
-8.60
-11.35
-14.27
-17.64
-21.46
-25.43
-29.07
-31.95
-33.93
-35.22
-36.36
-38.05
-40.90
-45.19
-50.62
-56.14
-59.99
-60.16
-55.01
-43.94
-27.79
-8.70
10.53
27.30
39.91
47.82
51.40
51.42
48.69
43.87
37.49
30.22
22.85
16.21
11.02
7.62
6.01
5.91
6.86
8.42
10.28
12.22
14.04
15.57
16.49
16.48
15.27
12.83
9.39
5.48
1.67
-1.64
-4.46
-7.13
-10.15
-13.89
-18.26
-22.79
-26.82
-29.79
-31.62
-32.66
-33.63
-35.34
-38.40
-43.07
-49.00
-55.17
-59.95
-61.37
-57.68
-48.04
-33.00
-14.47
4.77
21.96
35.11
43.47
47.31
47.47
44.86
40.17
33.88
26.48
18.63
11.19
5.03
0.82
-1.16
-1.11
0.34
2.40
4.35
5.73
6.49
6.83
6.98
7.00
6.63
5.43
2.97
-0.91
-5.95
-11.53
-16.92
-21.47
-24.89
-27.28
-29.10
-31.01
-33.70
-37.77
-43.49
-50.68
-58.46
-65.23
-68.89
-67.42
-59.59
-45.48
-26.65
-5.74
14.32
31.16
43.53
51.24
54.85
55.13
52.68
47.90
41.17
33.09
24.61
16.85
10.80
7.03
5.60
6.03
7.57
9.51
11.36
12.92
14.21
15.27
16.05
16.27
15.51
13.26
9.23
3.51
-3.39
-10.60
-17.21
-22.61
-26.65
-29.76
-32.66
-36.13
-40.82
-47.05
-54.70
-63.06
-70.67
-75.50
-75.28
-68.31
-54.17
-34.11
-10.87
12.21
32.15
47.16
56.78
61.58
62.47
60.23
55.39
48.41
39.99
31.15
23.10
16.88
13.06
11.55
11.73
12.73
13.80
14.53
14.89
15.09
15.35
15.61
15.49
14.37
11.69
7.24
1.25
-5.56
-12.30
-18.21
-22.95
-26.68
-30.02
-33.80
-38.81
-45.54
-53.97
-63.26
-71.76
-77.19
-77.23
-70.32
-56.30
-36.66
-14.11
8.21
27.69
42.77
53.01
58.67
60.24
58.17
52.90
45.19
36.18
27.32
20.01
15.10
12.69
12.15
12.53
12.97
13.08
12.98
13.06
13.58
14.36
14.74
13.79
10.69
5.19
-2.24
-10.52
-18.40
-24.85
-29.51
-32.75
-35.53
-38.99
-44.19
-51.66
-61.17
-71.53
-80.62
-85.79
-84.55
-75.46
-58.73
-36.36
-11.55
12.22
32.22
47.00
56.39
60.99
61.61
58.95
53.56
46.16
37.75
29.61
22.95
18.55
16.52
16.37
17.32
18.68
20.10
21.59
23.20
24.84
26.02
25.99
23.99
19.61
13.04
5.01
-3.45
-11.38
-18.23
-24.01
-29.23
-34.72
-41.34
-49.72
-60.02
-71.59
-82.84
-91.31
-94.20
-89.27
-75.74
-54.78
-29.31
-3.13
20.30
38.77
51.62
59.38
63.10
63.72
61.84
57.89
52.41
46.18
40.23
35.52
32.71
31.97
33.01
35.22
37.90
40.40
42.20
42.97
42.52
40.88
38.20
34.73
30.64
25.93
20.49
14.15
6.87
-1.07
-9.15
-16.77
-23.49
-29.23
-34.27
-39.11
-44.33
-50.41
-57.76
-66.60
-76.69
-87.04
-95.65
-99.80
-96.82
-85.05
-64.75
-38.25
-9.23
18.31
41.29
58.11
68.65
73.67
74.22
71.28
65.74
58.58
50.96
44.09
38.97
36.16
35.60
36.79
39.01
41.62
44.24
46.75
49.10
51.06
52.21
51.94
49.70
45.31
39.11
31.85
24.43
17.53
11.33
5.51
-0.56
-7.38
-15.06
-23.14
-30.83
-37.31
-42.15
-45.55
-48.33
-51.69
-56.85
-64.60
-74.79
-86.08
-95.96
-101.25
-99.00
-87.54
-67.21
-40.45
-11.14
16.64
39.75
56.67
67.44
73.07
74.72
73.27
69.28
63.29
56.17
49.12
43.49
40.23
39.59
41.01
43.45
45.84
47.50
48.32
48.59
48.64
48.53
47.95
46.31
43.02
37.85
31.07
23.40
15.74
8.91
3.30
-1.26
-5.34
-9.74
-15.01
-21.27
-28.05
-34.57
-40.00
-43.81
-46.07
-47.32
-48.55
-50.86
-55.25
-62.28
-71.73
-82.34
-91.77
-96.99
-95.08
-84.29
-64.76
-38.72
-9.84
17.89
41.25
58.54
69.51
74.93
75.88
73.38
68.29
61.43
53.80
46.51
40.64
36.92
35.59
36.30
38.32
40.80
43.09
44.82
45.91
46.41
46.35
45.62
43.94
41.03
36.71
31.02
24.27
17.00
9.86
3.41
-1.92
-6.10
-9.43
-12.50
-15.91
-20.04
-24.82
-29.81
-34.36
-37.99
-40.64
-42.67
-44.81
-47.77
-52.18
-58.43
-66.54
-76.00
-85.54
-92.99
-95.69
-91.16
-78.11
-57.12
-30.68
-2.50
23.56
44.68
59.49
68.01
71.08
69.71
64.91
57.58
48.83
39.93
32.19
26.63
23.70
23.18
24.34
26.36
28.50
30.39
31.94
33.22
34.24
34.82
34.57
32.99
29.72
24.74
18.49
11.78
5.53
0.35
-3.67
-7.00
-10.46
-14.71
-20.00
-25.94
-31.70
-36.51
-39.87
-41.90
-43.23
-44.82
-47.66
-52.55
-59.75
-68.73
-77.89
-84.76
-86.50
-80.80
-66.79
-45.47
-19.59
7.25
31.66
51.26
65.02
73.07
76.16
75.25
71.28
65.15
57.85
50.44
43.90
38.92
35.75
34.13
33.45
33.04
32.47
31.71
31.07
31.04
31.83
33.19
34.37
34.38
32.42
28.16
22.00
14.80
7.59
1.08
-4.52
-9.55
-14.54
-19.95
-25.82
-31.79
-37.26
-41.69
-44.85
-46.91
-48.43
-50.21
-53.12
-57.81
-64.52
-72.72
-80.96
-86.96
-88.15
-82.44
-69.07
-49.02
-24.91
-0.14
22.05
39.48
51.34
57.93
60.10
58.67
54.28
47.46
38.88
29.56
20.78
13.76
9.31
7.60
8.18
10.20
12.74
15.07
16.72
17.56
17.58
16.80
15.27
12.97
9.91
6.08
1.51
-3.67
-9.32
-15.20
-21.09
-26.74
-32.06
-37.04
-41.78
-46.56
-51.72
-57.67
-64.77
-73.09
-82.03
-90.19
-95.40
-95.21
-87.75
-72.53
-50.88
-25.64
-0.34
21.90
39.09
50.61
56.90
58.84
57.33
53.09
46.87
39.54
32.20
26.03
22.01
20.59
21.61
24.28
27.56
30.43
32.23
32.80
32.31
31.06
29.23
26.71
23.23
18.48
12.31
4.83
-3.52
-12.13
-20.29
-27.39
-33.09
-37.37
-40.57
-43.33
-46.47
-50.87
-57.21
-65.66
-75.53
-85.01
-91.42
-91.85
-84.15
-67.86
-44.57
-17.54
9.34
32.71
50.55
62.32
68.55
70.18
68.11
63.07
55.76
47.07
38.14
30.16
24.11
20.49
19.25
19.82
21.37
23.09
24.42
25.11
25.26
25.04
24.54
23.59
21.75
18.49
13.43
6.62
-1.34
-9.53
-16.94
-22.88
-27.26
-30.58
-33.78
-37.85
-43.65
-51.57
-61.33
-71.77
-80.88
-86.01
-84.61
-75.04
-57.34
-33.41
-6.57
19.43
41.51
57.91
68.29
73.21
73.60
70.27
63.87
55.08
44.83
34.38
25.05
17.93
13.59
11.94
12.30
13.75
15.42
16.76
17.67
18.30
18.87
19.35
19.38
18.32
15.52
10.55
3.58
-4.71
-13.27
-21.09
-27.55
-32.63
-36.90
-41.20
-46.40
-53.17
-61.72
-71.69
-81.95
-90.55
-94.94
-92.63
-82.02
-63.15
-37.96
-9.79
17.58
41.03
58.75
70.26
75.97
76.59
72.78
65.22
54.86
43.08
31.63
22.16
15.75
12.60
12.05
12.94
14.14
15.02
15.57
16.16
17.16
18.44
19.34
18.77
15.76
9.95
1.82
-7.43
-16.32
-23.70
-29.14
-33.08
-36.57
-40.88
-47.16
-55.95
-67.03
-79.07
-89.74
-95.99
-94.88
-84.58
-65.19
-38.95
-9.68
18.45
42.08
59.48
70.45
75.80
76.52
73.39
67.03
58.14
47.82
37.56
28.84
22.82
19.90
19.73
21.41
23.85
26.14
27.74
28.54
28.71
28.47
27.86
26.65
24.35
20.39
14.39
6.45
-2.81
-12.38
-21.24
-28.66
-34.48
-39.11
-43.33
-48.03
-53.97
-61.65
-71.02
-81.27
-90.71
-96.81
-96.78
-88.48
-71.29
-46.64
-17.72
11.45
37.19
57.16
70.59
77.97
80.36
78.82
74.18
67.10
58.34
49.01
40.36
33.57
29.36
27.70
27.99
29.24
30.51
31.22
31.25
30.78
30.07
29.19
27.92
25.83
22.40
17.28
10.42
2.21
-6.66
-15.35
-23.13
-29.63
-34.92
-39.44
-43.83
-48.69
-54.57
-61.89
-70.74
-80.60
-90.01
-96.58
-97.44
-90.16
-73.75
-49.37
-20.13
9.77
36.34
56.90
70.45
77.43
78.98
76.27
70.27
61.77
51.70
41.28
31.91
24.85
20.85
19.95
21.44
24.17
26.95
28.92
29.75
29.58
28.80
27.80
26.67
25.15
22.71
18.83
13.23
6.04
-2.14
-10.51
-18.23
-24.79
-30.09
-34.53
-38.77
-43.59
-49.72
-57.65
-67.44
-78.48
-89.22
-97.20
-99.54
-93.76
-78.81
-55.70
-27.37
2.10
28.78
49.97
64.62
73.10
76.46
75.68
71.46
64.37
55.22
45.26
36.08
29.15
25.39
24.80
26.60
29.54
32.39
34.29
34.98
34.63
33.59
32.12
30.15
27.32
23.10
17.12
9.34
0.23
-9.36
-18.47
-26.32
-32.57
-37.41
-41.48
-45.61
-50.68
-57.30
-65.68
-75.44
-85.32
-93.26
-96.63
-92.95
-80.75
-60.30
-33.74
-4.58
23.26
46.61
63.60
73.85
77.96
76.95
71.90
63.84
53.89
43.41
33.82
26.34
21.60
19.47
19.21
19.87
20.67
21.34
22.05
23.09
24.52
25.90
26.35
24.89
20.87
14.37
6.16
-2.57
-10.63
-17.33
-22.65
-27.19
-31.92
-37.87
-45.75
-55.59
-66.45
-76.34
-82.48
-82.02
-73.09
-55.55
-31.36
-4.00
22.54
45.03
61.66
72.12
77.06
77.32
73.62
66.51
56.71
45.34
33.94
24.14
17.12
13.31
12.32
13.12
14.61
15.89
16.61
16.84
16.91
16.99
16.94
16.18
13.97
9.69
3.26
-4.72
-13.20
-20.93
-27.08
-31.48
-34.70
-37.85
-42.06
-48.29
-56.91
-67.54
-78.92
-88.89
-94.70
-93.61
-83.82
-65.25
-39.81
-10.97
17.20
41.23
59.01
69.93
74.51
73.75
68.71
60.40
49.96
38.74
28.28
19.94
14.52
12.11
12.02
13.28
15.00
16.66
18.18
19.65
21.03
21.92
21.60
19.37
14.81
8.15
0.13
-8.16
-15.77
-22.18
-27.49
-32.36
-37.82
-44.88
-54.11
-65.18
-76.59
-85.75
-89.60
-85.52
-72.37
-51.01
-24.26
4.02
30.03
51.03
65.76
74.19
77.06
75.28
69.73
61.24
50.84
39.82
29.59
21.48
16.38
14.49
15.31
17.79
20.71
23.01
24.15
24.14
23.34
22.17
20.76
18.83
15.80
11.14
4.68
-3.23
-11.75
-19.91
-26.94
-32.54
-36.96
-40.83
-44.91
-49.86
-56.18
-64.01
-73.02
-82.10
-89.34
-92.24
-88.36
-76.29
-56.42
-31.01
-3.60
22.05
43.08
58.18
67.36
71.43
71.28
67.59
60.88
51.86
41.67
31.83
23.87
18.81
16.93
17.67
19.93
22.52
24.51
25.45
25.36
24.51
23.18
21.49
19.29
16.25
12.00
6.39
-0.43
-7.95
-15.40
-22.11
-27.64
-31.99
-35.55
-38.93
-42.75
-47.56
-53.80
-61.57
-70.44
-79.21
-85.80
-87.60
-82.36
-69.00
-48.30
-22.83
3.73
27.82
46.89
59.88
67.03
69.30
67.72
63.14
56.28
47.88
38.90
30.51
23.79
19.50
17.86
18.54
20.78
23.71
26.54
28.73
29.99
30.30
29.72
28.31
26.11
23.10
19.20
14.36
8.53
1.80
-5.61
-13.30
-20.78
-27.56
-33.35
-38.15
-42.24
-46.11
-50.36
-55.58
-62.16
-70.08
-78.65
-86.32
-90.82
-89.67
-81.09
-64.73
-42.11
-16.24
9.28
31.33
48.04
58.88
64.28
65.02
61.91
55.61
46.98
37.16
27.57
19.60
14.25
11.90
12.26
14.59
17.94
21.48
24.56
26.78
27.92
27.93
26.82
24.69
21.64
17.74
13.02
7.48
1.12
-5.91
-13.26
-20.41
-26.79
-31.97
-35.74
-38.25
-39.95
-41.48
-43.61
-47.09
-52.43
-59.56
-67.51
-74.29
-77.24
-73.87
-62.80
-44.40
-20.96
4.09
27.20
45.73
58.47
65.51
67.70
66.09
61.54
54.76
46.49
37.62
29.20
22.29
17.67
15.66
16.06
18.21
21.19
24.11
26.28
27.36
27.32
26.33
24.59
22.17
19.02
15.00
10.05
4.25
-2.09
-8.49
-14.46
-19.67
-24.01
-27.64
-30.88
-34.16
-37.92
-42.55
-48.41
-55.52
-63.41
-70.84
-75.81
-75.96
-69.38
-55.40
-35.11
-11.22
12.75
33.52
49.01
58.59
62.84
62.81
59.49
53.54
45.55
36.25
26.72
18.25
12.00
8.62
8.10
9.79
12.72
15.91
18.65
20.62
21.79
22.31
22.30
21.73
20.36
17.88
14.03
8.78
2.39
-4.61
-11.55
-17.85
-23.19
-27.55
-31.25
-34.77
-38.68
-43.54
-49.72
-57.26
-65.55
-73.21
-78.15
-78.03
-71.08
-56.76
-36.28
-12.32
11.72
32.73
48.66
58.83
63.61
63.85
60.39
53.88
44.99
34.60
24.00
14.68
7.98
4.66
4.66
7.15
10.89
14.64
17.59
19.46
20.42
20.76
20.66
19.94
18.16
14.79
9.53
2.51
-5.62
-13.91
-21.44
-27.58
-32.32
-36.05
-39.52
-43.46
-48.45
-54.78
-62.32
-70.33
-77.30
-81.13
-79.56
-70.93
-54.98
-33.18
-8.41
15.90
36.76
52.33
62.06
66.42
66.22
62.29
55.32
46.04
35.45
24.88
15.79
9.44
6.53
6.96
9.92
14.20
18.53
21.98
24.12
24.94
24.69
23.64
21.91
19.40
15.92
11.28
5.45
-1.37
-8.71
-16.02
-22.72
-28.43
-33.05
-36.82
-40.18
-43.76
-48.19
-53.96
-61.21
-69.47
-77.43
-82.99
-83.72
-77.61
-63.88
-43.44
-18.83
6.55
29.37
47.26
59.21
65.35
66.53
63.74
57.93
49.92
40.63
31.15
22.62
16.08
12.16
10.93
11.98
14.57
17.90
21.29
24.24
26.37
27.39
27.05
25.22
21.97
17.52
12.23
6.42
0.30
-6.06
-12.67
-19.50
-26.32
-32.70
-38.03
-41.71
-43.46
-43.45
-42.38
-41.42
-41.87
-44.78
-50.46
-58.06
-65.62
-70.34
-69.44
-61.16
-45.46
-24.20
-0.59
21.86
40.38
53.54
61.19
64.00
62.87
58.51
51.57
42.75
33.04
23.69
15.92
10.70
8.47
9.02
11.69
15.57
19.69
23.31
25.95
27.44
27.76
26.89
24.71
21.05
15.76
8.90
0.89
-7.49
-15.37
-22.05
-27.25
-31.22
-34.59
-38.08
-42.25
-47.43
-53.75
-61.20
-69.47
-77.77
-84.44
-87.17
-83.51
-71.85
-52.22
-26.59
1.55
28.34
50.62
66.77
76.67
81.27
81.78
79.17
74.07
66.93
58.39
49.41
41.21
34.97
31.44
30.74
32.31
35.15
38.14
40.36
41.31
40.87
39.20
36.51
33.00
28.77
23.99
18.92
13.95
9.47
5.73
2.68
-0.09
-3.23
-7.36
-12.81
-19.57
-27.34
-35.78
-44.72
-54.06
-63.47
-71.94
-77.68
-78.40
-72.17
-58.33
-38.12
-14.50
8.64
27.72
40.47
46.43
46.62
42.84
36.89
30.05
23.11
16.53
10.85
6.73
4.80
5.35
8.06
12.02
16.02
18.99
20.38
20.16
18.72
16.45
13.56
10.01
5.69
0.60
-5.00
-10.67
-15.95
-20.53
-24.33
-27.48
-30.29
-33.07
-36.20
-40.09
-45.15
-51.64
-59.43
-67.65
-74.58
-77.96
-75.59
-66.14
-49.81
-28.44
-5.04
17.12
35.35
48.16
55.30
57.38
55.38
50.33
43.21
35.12
27.28
20.92
16.99
15.73
16.55
18.26
19.55
19.57
18.32
16.52
15.24
15.32
16.84
19.08
20.71
20.41
17.37
11.61
3.94
-4.34
-12.00
-18.32
-23.30
-27.57
-32.06
-37.66
-44.83
-53.43
-62.58
-70.68
-75.66
-75.36
-68.16
-53.66
-32.98
-8.68
15.94
37.78
54.64
65.63
70.92
71.28
67.59
60.68
51.40
40.80
30.12
20.59
13.10
7.97
4.90
3.28
2.55
2.42
2.91
4.13
5.96
7.94
9.25
9.05
6.81
2.51
-3.27
-9.65
-15.71
-20.89
-25.13
-28.84
-32.77
-37.78
-44.53
-53.22
-63.37
-73.54
-81.44
-84.36
-79.97
-67.17
-46.68
-20.98
6.31
31.57
52.09
66.47
74.67
77.40
75.72
70.69
63.37
54.82
46.11
38.09
31.29
25.76
21.21
17.27
13.68
10.50
7.93
6.16
5.11
4.27
2.93
0.34
-3.90
-9.65
-16.30
-23.00
-29.06
-34.25
-38.93
-43.92
-50.22
-58.49
-68.56
-79.06
-87.46
-90.65
-85.95
-72.18
-50.34
-23.52
4.03
28.25
46.46
57.84
63.16
63.96
61.68
57.20
50.92
43.18
34.61
26.23
19.18
14.28
11.73
11.05
11.39
11.90
11.98
11.44
10.34
8.82
6.95
4.69
1.93
-1.40
-5.29
-9.67
-14.55
-20.09
-26.68
-34.76
-44.56
-55.58
-66.34
-74.41
-77.00
-71.83
-58.09
-36.82
-10.85
16.06
40.21
58.81
70.47
75.16
73.81
67.84
58.73
47.76
35.96
24.21
13.31
4.09
-2.75
-6.78
-8.12
-7.48
-5.98
-4.79
-4.76
-6.11
-8.54
-11.43
-14.24
-16.81
-19.38
-22.60
-27.27
-34.12
-43.70
-56.12
-70.80
-86.16
-99.61
-107.86
-107.89
-97.93
-78.33
-51.66
-21.86
6.93
31.59
50.58
63.82
71.95
75.62
75.17
70.82
63.06
53.02
42.42
33.10
26.53
23.26
22.82
23.96
25.12
24.98
22.85
18.81
13.53
7.95
2.81
-1.58
-5.49
-9.59
-14.78
-21.86
-31.30
-43.03
-56.12
-68.72
-78.11
-81.32
-75.92
-61.01
-37.71
-9.09
20.73
47.76
69.16
83.74
91.74
94.25
92.55
87.68
80.49
71.73
62.17
52.70
44.18
37.21
32.02
28.50
26.21
24.52
22.83
20.65
17.74
14.09
9.92
5.48
0.95
-3.67
-8.58
-14.13
-20.75
-28.95
-39.11
-51.31
-64.90
-78.18
-88.41
-92.33
-87.25
-72.10
-48.14
-18.75
11.56
38.56
59.41
73.13
80.29
82.20
80.24
75.43
68.53
60.28
51.55
43.28
36.22
30.65
26.30
22.66
19.25
16.02
13.22
11.25
10.18
9.52
8.32
5.53
0.52
-6.59
-14.96
-23.39
-30.88
-36.99
-42.01
-46.83
-52.64
-60.52
-70.94
-83.31
-95.71
-105.02
-107.67
-100.80
-83.34
-56.79
-24.89
7.47
35.81
57.24
70.92
77.64
78.93
76.21
70.53
62.69
53.61
44.46
36.45
30.43
26.56
24.32
22.88
21.57
20.27
19.34
19.19
19.90
20.87
20.93
18.89
14.05
6.60
-2.42
-11.57
-19.60
-25.92
-30.75
-35.00
-39.89
-46.54
-55.54
-66.47
-77.70
-86.43
-89.35
-83.63
-68.16
-44.14
-14.92
15.03
41.58
62.03
75.58
82.89
85.24
83.77
79.26
72.24
63.48
54.10
45.47
38.78
34.62
32.74
32.20
31.88
30.90
29.06
26.80
24.83
23.63
23.08
22.39
20.41
16.15
9.27
0.26
-9.75
-19.37
-27.55
-33.88
-38.71
-42.91
-47.60
-53.79
-62.10
-72.53
-84.19
-95.15
-102.61
-103.46
-95.28
-77.36
-51.23
-20.45
10.50
37.52
58.07
71.43
78.34
80.17
78.21
73.40
66.47
58.21
49.63
41.90
35.92
32.14
30.37
29.94
29.92
29.54
28.35
26.38
23.94
21.42
19.07
16.77
14.11
10.55
5.66
-0.61
-7.88
-15.41
-22.39
-28.22
-32.66
-35.90
-38.42
-40.85
-43.82
-47.94
-53.73
-61.41
-70.61
-80.03
-87.37
-89.72
-84.45
-70.21
-47.79
-19.98
9.07
35.25
55.61
68.95
75.64
76.97
74.36
68.87
61.22
52.04
42.13
32.52
24.29
18.24
14.69
13.39
13.72
14.95
16.44
17.78
18.76
19.23
19.06
18.11
16.27
13.45
9.69
5.11
-0.13
-5.80
-11.69
-17.51
-23.00
-27.98
-32.40
-36.28
-39.85
-43.35
-47.12
-51.59
-57.24
-64.23
-72.10
-79.35
-83.52
-81.82
-72.18
-54.24
-29.80
-2.37
23.92
45.68
61.09
69.94
73.08
71.65
66.63
58.73
48.72
37.67
26.92
17.85
11.44
7.96
7.03
7.75
9.09
10.24
10.77
10.70
10.32
9.95
9.63
9.07
7.76
5.14
0.94
-4.68
-11.13
-17.65
-23.51
-28.25
-31.85
-34.65
-37.19
-40.13
-44.10
-49.53
-56.49
-64.42
-71.93
-76.91
-76.96
-70.13
-55.72
-34.81
-10.03
15.11
37.23
54.04
64.66
69.40
69.26
65.31
58.42
49.36
39.01
28.46
18.97
11.58
6.84
4.57
3.96
3.99
3.87
3.34
2.68
2.43
2.91
3.95
4.78
4.38
1.93
-2.81
-9.31
-16.51
-23.24
-28.70
-32.75
-35.89
-38.97
-42.92
-48.43
-55.77
-64.63
-73.96
-81.87
-85.90
-83.62
-73.43
-55.39
-31.43
-4.90
20.44
41.58
56.89
66.26
70.43
70.41
67.00
60.73
52.18
42.18
31.95
22.79
15.78
11.43
9.59
9.56
10.38
11.20
11.55
11.38
10.94
10.54
10.24
9.82
8.75
6.42
2.49
-2.99
-9.51
-16.24
-22.38
-27.40
-31.28
-34.46
-37.69
-41.75
-47.31
-54.73
-63.86
-73.89
-83.16
-89.27
-89.59
-82.08
-66.20
-43.31
-16.51
10.33
33.72
51.48
63.00
68.85
70.10
67.76
62.50
54.89
45.69
35.95
26.90
19.63
14.76
12.32
11.78
12.29
13.05
13.52
13.59
13.45
13.37
13.36
13.04
11.73
8.69
3.51
-3.58
-11.73
-19.75
-26.59
-31.70
-35.28
-38.08
-41.13
-45.39
-51.49
-59.65
-69.44
-79.69
-88.45
-93.13
-91.20
-80.92
-62.26
-37.15
-9.06
17.99
40.71
57.28
67.53
72.36
72.96
70.21
64.67
56.77
47.28
37.45
28.75
22.43
19.02
18.25
19.21
20.77
22.06
22.70
22.80
22.67
22.59
22.51
22.08
20.74
17.93
13.39
7.24
-0.02
-7.59
-14.70
-20.84
-25.93
-30.31
-34.62
-39.60
-45.95
-54.05
-63.89
-74.73
-84.93
-92.10
-93.55
-87.03
-71.72
-48.68
-20.78
8.12
34.30
55.12
69.41
77.30
79.62
77.31
71.27
62.41
51.80
40.83
30.95
23.39
18.72
16.79
16.83
17.82
18.92
19.67
20.08
20.43
20.90
21.41
21.41
20.10
16.81
11.25
3.83
-4.53
-12.66
-19.63
-25.02
-29.07
-32.52
-36.34
-41.50
-48.65
-57.96
-68.81
-79.65
-88.03
-91.10
-86.42
-72.94
-51.59
-25.18
2.43
27.48
47.36
61.00
68.64
71.11
69.27
63.83
55.47
45.26
34.70
25.47
18.95
15.72
15.50
17.30
19.88
22.26
23.98
25.07
25.82
26.45
26.83
26.43
24.49
20.38
13.94
5.65
-3.47
-12.21
-19.59
-25.22
-29.37
-32.82
-36.58
-41.59
-48.48
-57.28
-67.26
-76.71
-83.13
-83.82
-76.65
-60.99
-38.08
-10.91
16.73
41.29
60.30
72.70
78.60
78.76
74.15
65.76
54.75
42.54
30.73
20.88
14.11
10.78
10.43
11.99
14.24
16.30
17.81
18.94
20.05
21.37
22.64
23.13
21.97
18.48
12.62
5.01
-3.16
-10.70
-16.83
-21.50
-25.37
-29.51
-35.02
-42.63
-52.48
-63.81
-74.94
-83.39
-86.33
-81.40
-67.59
-45.81
-18.85
9.39
35.07
55.43
69.29
76.89
79.15
77.09
71.46
62.91
52.29
40.82
30.08
21.62
16.45
14.75
15.77
18.22
20.71
22.29
22.67
22.20
21.46
20.85
20.27
19.09
16.51
11.94
5.42
-2.35
-10.21
-17.08
-22.35
-26.08
-28.94
-31.91
-35.93
-41.69
-49.50
-59.15
-69.64
-79.08
-84.85
-84.19
-75.13
-57.45
-32.95
-5.14
21.91
44.75
61.40
71.43
75.46
74.48
69.35
60.82
49.82
37.65
25.98
16.52
10.44
8.10
8.91
11.67
15.02
17.90
19.86
21.00
21.68
22.18
22.40
21.79
19.58
15.14
8.35
-0.23
-9.51
-18.23
-25.39
-30.67
-34.49
-37.78
-41.71
-47.29
-55.05
-64.85
-75.71
-85.73
-92.31
-92.68
-84.75
-67.94
-43.66
-15.07
13.80
39.22
58.72
71.35
77.40
77.74
73.33
65.08
54.08
41.75
29.80
19.88
13.12
9.78
9.26
10.45
12.21
13.82
15.13
16.32
17.55
18.62
18.88
17.47
13.74
7.61
-0.29
-8.84
-16.87
-23.56
-28.74
-32.85
-36.78
-41.55
-48.05
-56.61
-66.75
-76.85
-84.30
-86.06
-79.69
-64.32
-41.21
-13.53
14.56
39.28
58.08
70.05
75.51
75.40
70.76
62.59
52.00
40.41
29.42
20.51
14.55
11.61
11.02
11.75
12.96
14.21
15.48
16.86
18.26
19.17
18.77
16.27
11.29
4.11
-4.37
-12.97
-20.68
-27.01
-32.12
-36.74
-41.91
-48.61
-57.46
-68.28
-79.79
-89.56
-94.44
-91.52
-79.14
-57.80
-30.19
-0.43
27.22
49.59
65.21
74.19
77.40
75.84
70.25
61.30
49.94
37.64
26.27
17.56
12.62
11.55
13.50
16.98
20.52
23.07
24.27
24.37
23.86
23.02
21.66
19.16
14.70
7.82
-1.30
-11.68
-21.95
-30.84
-37.71
-42.78
-46.94
-51.42
-57.30
-65.25
-75.31
-86.74
-97.91
-106.35
-109.11
-103.64
-88.65
-64.90
-35.19
-3.62
25.59
49.29
66.00
75.79
79.65
78.83
74.43
67.39
58.66
49.35
40.73
33.90
29.61
28.08
28.98
31.61
35.10
38.57
41.34
42.90
42.97
41.47
38.48
34.25
29.09
23.32
17.17
10.70
3.79
-3.71
-11.83
-20.46
-29.18
-37.47
-44.85
-51.11
-56.43
-61.31
-66.50
-72.81
-80.83
-90.53
-100.81
-109.34
-112.92
-108.35
-93.70
-69.30
-37.92
-4.04
27.61
53.40
71.64
82.41
86.82
86.29
81.99
74.92
66.14
56.96
48.80
42.77
39.46
38.66
39.62
41.35
43.09
44.49
45.60
46.67
47.82
48.79
48.92
47.37
43.58
37.52
29.87
21.76
14.34
8.25
3.36
-1.09
-6.01
-12.03
-19.05
-26.35
-32.97
-38.17
-41.86
-44.59
-47.38
-51.38
-57.49
-66.16
-76.99
-88.65
-98.72
-104.07
-101.65
-89.65
-68.29
-40.14
-9.35
19.60
43.31
60.14
70.21
74.62
74.62
71.19
65.02
56.87
47.81
39.22
32.38
28.08
26.37
26.66
28.11
29.97
31.88
33.81
35.79
37.70
39.10
39.32
37.76
34.16
28.82
22.50
16.11
10.28
5.15
0.33
-4.84
-10.80
-17.57
-24.61
-31.12
-36.39
-40.16
-42.74
-44.90
-47.68
-52.05
-58.69
-67.59
-77.73
-86.99
-92.40
-90.87
-80.40
-60.90
-34.52
-5.11
22.99
46.27
62.78
72.31
75.74
74.29
69.06
60.93
50.86
40.05
29.93
21.86
16.73
14.75
15.51
18.21
22.02
26.22
30.35
34.02
36.84
38.41
38.34
36.42
32.73
27.57
21.48
14.95
8.33
1.70
-5.04
-12.04
-19.32
-26.66
-33.60
-39.63
-44.41
-47.96
-50.75
-53.66
-57.70
-63.71
-71.87
-81.33
-90.05
-95.12
-93.49
-83.05
-63.56
-36.90
-6.67
22.90
48.14
66.75
78.02
82.49
81.26
75.61
66.75
55.90
44.32
33.30
23.94
17.00
12.77
11.08
11.50
13.41
16.24
19.45
22.54
25.09
26.65
26.85
25.46
22.48
18.18
13.07
7.68
2.38
-2.80
-8.06
-13.69
-19.82
-26.30
-32.66
-38.42
-43.24
-47.16
-50.64
-54.41
-59.33
-66.01
-74.47
-83.66
-91.43
-94.87
-91.06
-78.26
-56.70
-28.78
1.54
29.94
53.00
68.93
77.64
80.16
77.88
72.06
63.65
53.52
42.67
32.32
23.71
17.81
14.99
14.95
16.83
19.55
22.11
23.82
24.43
23.93
22.51
20.33
17.46
13.86
9.47
4.20
-1.92
-8.69
-15.76
-22.66
-28.94
-34.34
-38.83
-42.66
-46.25
-50.10
-54.78
-60.78
-68.45
-77.62
-87.31
-95.43
-99.15
-95.62
-83.05
-61.56
-33.41
-2.40
27.27
52.22
70.54
81.86
86.86
86.62
82.26
74.78
65.17
54.51
43.94
34.47
26.85
21.44
18.24
16.95
17.15
18.44
20.46
22.93
25.55
27.85
29.27
29.25
27.38
23.61
18.21
11.67
4.48
-3.03
-10.69
-18.41
-26.05
-33.33
-39.99
-45.86
-51.00
-55.83
-60.99
-67.23
-75.10
-84.45
-94.17
-102.00
-104.98
-100.28
-86.29
-63.47
-34.41
-3.20
25.84
49.40
65.87
75.27
78.70
77.51
72.88
65.70
56.79
47.12
37.86
30.09
24.62
21.68
20.97
21.87
23.67
25.81
27.82
29.44
30.40
30.51
29.65
27.74
24.80
20.88
16.04
10.31
3.73
-3.54
-11.30
-19.16
-26.75
-33.69
-39.78
-45.06
-49.82
-54.69
-60.41
-67.68
-76.74
-86.98
-96.61
-102.81
-102.44
-93.10
-74.13
-47.20
-15.97
15.06
41.80
61.73
74.14
79.73
79.79
75.56
68.04
58.13
46.89
35.65
25.84
18.57
14.40
13.17
14.19
16.51
19.24
21.76
23.75
25.14
25.93
26.10
25.54
24.00
21.18
16.85
10.94
3.64
-4.61
-13.19
-21.47
-28.92
-35.30
-40.67
-45.42
-50.12
-55.48
-62.14
-70.43
-80.06
-89.81
-97.53
-100.35
-95.56
-81.53
-58.59
-29.22
2.56
32.33
56.52
73.17
82.10
84.32
81.30
74.46
65.00
53.99
42.61
32.15
23.76
18.27
15.91
16.35
18.81
22.30
25.90
28.83
30.62
31.04
30.07
27.84
24.49
20.20
15.10
9.23
2.66
-4.56
-12.20
-19.90
-27.19
-33.64
-38.99
-43.30
-46.98
-50.69
-55.25
-61.44
-69.77
-80.22
-91.82
-102.44
-109.07
-108.44
-98.23
-78.02
-49.78
-17.40
14.49
41.84
62.26
75.18
81.35
82.11
78.73
72.18
63.34
53.21
43.07
34.30
28.01
24.82
24.61
26.73
30.18
33.94
37.21
39.48
40.51
40.28
38.81
36.19
32.48
27.72
21.92
15.12
7.41
-1.03
-9.84
-18.52
-26.56
-33.52
-39.33
-44.18
-48.57
-53.21
-58.83
-66.08
-75.26
-85.97
-96.76
-105.07
-107.68
-101.76
-86.00
-61.39
-31.15
0.19
28.33
50.39
65.37
73.83
77.04
76.27
72.38
66.08
58.13
49.63
41.82
35.74
31.95
30.37
30.45
31.49
32.92
34.40
35.77
36.87
37.36
36.77
34.66
30.86
25.62
19.57
13.47
7.81
2.64
-2.51
-8.22
-14.87
-22.36
-30.05
-37.14
-42.95
-47.38
-50.89
-54.42
-59.08
-65.77
-74.76
-85.38
-95.87
-103.50
-105.10
-98.02
-81.11
-55.30
-23.60
9.69
40.25
64.85
81.97
91.59
94.68
92.46
86.11
76.75
65.66
54.49
44.91
38.32
35.36
35.74
38.40
42.00
45.48
48.24
50.24
51.66
52.65
53.03
52.33
49.92
45.33
38.53
30.04
20.83
12.08
4.66
-1.17
-5.91
-10.55
-16.13
-23.10
-31.17
-39.33
-46.34
-51.36
-54.29
-55.89
-57.46
-60.42
-65.92
-74.50
-85.79
-98.30
-109.40
-115.64
-113.68
-101.38
-78.83
-48.53
-14.78
17.62
44.83
64.75
77.12
82.85
83.26
79.50
72.54
63.38
53.31
43.93
36.74
32.78
32.25
34.56
38.53
42.94
46.86
49.92
52.19
53.90
55.10
55.52
54.58
51.65
46.42
39.08
30.33
21.26
12.88
5.87
0.40
-4.02
-8.19
-12.98
-18.91
-25.94
-33.43
-40.43
-46.07
-49.96
-52.37
-54.18
-56.55
-60.59
-67.14
-76.43
-87.91
-99.96
-109.91
-114.43
-110.43
-96.21
-72.28
-41.51
-8.27
22.82
48.29
66.48
77.47
82.32
82.33
78.57
71.91
63.26
53.81
44.95
38.03
33.90
32.76
34.08
36.92
40.16
42.94
44.82
45.81
46.18
46.19
45.80
44.62
42.06
37.60
31.19
23.36
15.13
7.66
1.76
-2.43
-5.45
-8.28
-11.83
-16.61
-22.46
-28.74
-34.61
-39.42
-42.98
-45.62
-48.04
-51.13
-55.79
-62.69
-72.07
-83.34
-94.81
-103.73
-106.80
-101.17
-85.61
-61.14
-30.96
0.53
29.09
51.76
67.31
76.07
79.09
77.55
72.37
64.40
54.63
44.33
34.99
27.86
23.69
22.47
23.58
26.02
28.88
31.51
33.67
35.43
36.87
37.83
37.87
36.39
32.92
27.43
20.47
13.00
6.08
0.42
-3.92
-7.49
-11.17
-15.76
-21.54
-28.17
-34.83
-40.60
-44.85
-47.58
-49.39
-51.35
-54.65
-60.26
-68.48
-78.75
-89.37
-97.66
-100.51
-95.23
-80.55
-57.26
-28.19
2.55
30.76
53.32
68.78
77.18
79.56
77.22
71.30
62.83
52.81
42.40
32.81
25.08
19.85
17.21
16.78
17.96
20.12
22.79
25.60
28.29
30.53
31.83
31.69
29.65
25.58
19.78
12.99
6.18
0.06
-5.04
-9.39
-13.68
-18.58
-24.45
-31.02
-37.66
-43.55
-48.10
-51.25
-53.45
-55.60
-58.79
-63.96
-71.51
-80.89
-90.34
-97.06
-97.81
-90.00
-72.79
-47.60
-17.84
12.10
38.25
58.06
70.74
76.84
77.52
73.99
67.25
58.30
48.28
38.50
30.18
24.18
20.74
19.59
20.14
21.75
24.01
26.67
29.52
32.30
34.47
35.35
34.28
30.90
25.32
18.20
10.52
3.21
-3.15
-8.60
-13.61
-18.82
-24.68
-31.17
-37.88
-44.17
-49.50
-53.66
-56.90
-59.92
-63.73
-69.34
-77.35
-87.50
-98.26
-106.85
-109.79
-104.06
-88.15
-62.94
-31.59
1.42
31.63
55.86
72.69
82.31
85.75
84.22
78.82
70.52
60.51
50.13
40.80
33.62
28.98
26.65
25.96
26.24
27.06
28.35
30.12
32.25
34.23
35.24
34.46
31.37
26.05
19.13
11.55
4.26
-2.23
-7.93
-13.26
-18.81
-24.99
-31.84
-38.94
-45.65
-51.39
-55.93
-59.49
-62.82
-66.91
-72.82
-81.17
-91.74
-103.07
-112.47
-116.48
-111.89
-96.96
-72.24
-40.65
-6.63
25.33
51.83
71.29
83.73
90.09
91.49
88.85
83.01
74.96
65.98
57.45
50.56
45.91
43.39
42.42
42.23
42.33
42.60
43.20
44.27
45.72
46.97
47.17
45.44
41.26
34.73
26.57
17.91
9.86
3.06
-2.54
-7.60
-13.04
-19.52
-27.10
-35.21
-42.91
-49.35
-54.18
-57.67
-60.63
-64.13
-69.20
-76.48
-85.92
-96.46
-105.86
-111.04
-108.77
-96.78
-74.83
-45.08
-11.59
20.85
48.14
67.98
79.96
85.12
85.03
81.11
74.38
65.68
55.89
46.14
37.61
31.28
27.60
26.47
27.36
29.54
32.32
35.16
37.62
39.37
40.09
39.52
37.54
34.16
29.60
24.15
18.09
11.62
4.79
-2.49
-10.32
-18.66
-27.29
-35.76
-43.52
-50.10
-55.38
-59.69
-63.87
-68.99
-76.00
-85.14
-95.44
-104.58
-109.25
-106.15
-93.19
-70.42
-40.27
-6.87
25.10
51.88
71.36
83.19
88.22
87.79
83.17
75.38
65.39
54.31
43.43
34.09
27.39
23.84
23.31
25.14
28.37
32.06
35.48
38.16
39.75
40.01
38.71
35.73
31.12
25.15
18.23
10.76
2.99
-5.01
-13.27
-21.68
-29.96
-37.66
-44.39
-49.93
-54.49
-58.63
-63.20
-69.14
-77.11
-87.12
-98.14
-107.88
-113.16
-110.68
-98.20
-75.59
-45.14
-11.06
21.82
49.52
69.77
82.19
87.70
87.71
83.52
76.12
66.49
55.75
45.26
36.31
29.80
26.08
24.88
25.63
27.71
30.63
34.01
37.40
40.20
41.69
41.20
38.41
33.49
27.11
20.13
13.25
6.73
0.39
-6.19
-13.38
-21.15
-29.09
-36.56
-43.01
-48.26
-52.60
-56.67
-61.32
-67.40
-75.49
-85.61
-96.83
-107.06
-113.22
-111.95
-100.78
-79.30
-49.56
-15.68
17.40
45.54
66.33
79.40
85.67
86.56
83.24
76.50
67.16
56.35
45.68
36.87
31.25
29.29
30.57
33.96
38.12
42.01
45.05
47.18
48.55
49.26
49.08
47.49
43.88
37.93
29.86
20.51
11.13
2.86
-3.65
-8.57
-12.71
-17.15
-22.72
-29.59
-37.27
-44.83
-51.32
-56.15
-59.31
-61.35
-63.25
-66.14
-71.09
-78.77
-89.00
-100.33
-110.01
-114.43
-110.10
-95.03
-69.64
-36.90
-1.48
31.70
58.92
78.40
90.20
95.47
95.56
91.58
84.40
74.92
64.34
54.12
45.62
39.80
36.90
36.54
37.94
40.24
42.79
45.16
47.15
48.57
49.22
48.84
47.18
44.11
39.67
34.01
27.38
20.07
12.39
4.67
-2.69
-9.38
-15.24
-20.33
-25.01
-29.70
-34.76
-40.29
-46.05
-51.59
-56.40
-60.13
-62.85
-64.98
-67.27
-70.65
-75.96
-83.69
-93.59
-104.31
-113.34
-117.36
-113.13
-98.68
-74.18
-42.25
-7.27
25.94
53.50
73.34
85.23
90.16
89.61
84.88
77.11
67.37
56.96
47.30
39.66
34.88
33.13
33.95
36.52
39.98
43.65
47.09
50.08
52.44
53.93
54.30
53.31
50.85
46.96
41.83
35.76
29.02
21.87
14.57
7.46
0.83
-5.13
-10.41
-15.24
-20.03
-25.19
-30.92
-37.11
-43.34
-49.07
-53.84
-57.50
-60.31
-62.88
-66.11
-70.88
-77.96
-87.47
-98.62
-109.40
-116.72
-117.11
-107.83
-88.02
-59.21
-25.13
9.42
39.98
63.62
79.28
87.46
89.44
86.59
80.10
71.04
60.64
50.29
41.38
34.92
31.30
30.16
30.71
32.11
33.76
35.47
37.33
39.41
41.51
43.01
43.09
41.01
36.46
29.75
21.79
13.74
6.57
0.75
-3.98
-8.30
-13.08
-18.93
-25.90
-33.49
-40.87
-47.25
-52.20
-55.89
-58.98
-62.50
-67.46
-74.53
-83.65
-93.68
-102.42
-106.83
-103.87
-91.50
-69.62
-40.39
-7.71
23.90
50.62
70.24
82.31
87.61
87.43
82.96
75.23
65.24
54.19
43.50
34.47
27.95
24.06
22.34
22.03
22.50
23.37
24.62
26.24
28.03
29.48
29.88
28.56
25.22
20.05
13.76
7.24
1.21
-4.11
-9.03
-14.19
-20.17
-27.14
-34.78
-42.31
-48.93
-54.13
-57.96
-61.01
-64.26
-68.80
-75.38
-84.13
-94.07
-103.08
-108.09
-105.95
-94.41
-73.20
-44.32
-11.60
20.40
47.77
68.19
81.10
87.25
87.88
84.16
77.01
67.32
56.26
45.29
35.90
29.15
25.40
24.26
24.92
26.62
28.90
31.73
35.12
38.89
42.43
44.77
44.97
42.52
37.52
30.75
23.29
16.13
9.76
4.09
-1.44
-7.52
-14.59
-22.58
-30.98
-39.04
-46.08
-51.79
-56.37
-60.50
-65.19
-71.49
-80.17
-91.25
-103.63
-114.92
-121.74
-120.62
-109.17
-87.10
-56.56
-21.67
12.78
42.59
65.23
79.99
87.53
89.15
86.11
79.52
70.45
60.10
49.88
41.10
34.66
30.77
29.10
29.00
29.96
31.68
34.09
37.00
39.94
42.12
42.68
40.99
36.98
31.14
24.28
17.23
10.53
4.29
-1.78
-8.09
-14.91
-22.19
-29.55
-36.39
-42.22
-46.86
-50.58
-54.12
-58.44
-64.49
-72.82
-83.19
-94.17
-103.17
-106.80
-101.90
-86.67
-61.62
-29.63
4.72
36.63
62.40
80.22
90.08
93.04
90.54
83.84
74.04
62.27
49.86
38.23
28.67
22.02
18.53
17.89
19.46
22.46
26.05
29.51
32.20
33.68
33.71
32.26
29.41
25.32
20.12
13.87
6.68
-1.28
-9.67
-18.05
-26.03
-33.33
-39.87
-45.75
-51.22
-56.66
-62.59
-69.65
-78.39
-88.74
-99.55
-108.37
-111.85
-106.77
-91.30
-65.98
-33.77
0.71
32.67
58.41
76.08
85.64
88.13
85.03
77.73
67.52
55.66
43.51
32.43
23.57
17.66
14.97
15.26
17.97
22.31
27.39
32.29
36.20
38.54
39.02
37.64
34.60
30.21
24.79
18.53
11.54
3.87
-4.39
-13.05
-21.76
-30.09
-37.69
-44.45
-50.55
-56.48
-62.84
-70.28
-79.28
-89.97
-101.71
-112.85
-120.63
-121.72
-113.21
-93.86
-64.81
-29.62
6.80
39.58
65.33
82.68
92.10
95.03
93.07
87.43
78.91
68.28
56.59
45.22
35.74
29.42
26.87
27.88
31.49
36.39
41.26
45.12
47.38
47.81
46.47
43.56
39.34
34.05
27.89
20.92
13.10
4.39
-5.10
-15.04
-24.89
-34.04
-42.05
-48.78
-54.47
-59.68
-65.25
-72.11
-81.09
-92.32
-104.81
-116.12
-122.65
-120.61
-107.43
-82.95
-49.80
-12.69
23.07
53.14
75.15
88.79
95.06
95.43
91.26
83.63
73.60
62.43
51.54
42.28
35.66
32.08
31.38
32.96
36.01
39.74
43.42
46.47
48.45
49.02
48.04
45.50
41.49
36.17
29.68
22.12
13.59
4.24
-5.66
-15.68
-25.31
-34.06
-41.61
-47.93
-53.27
-58.19
-63.51
-70.13
-78.78
-89.58
-101.54
-112.36
-118.55
-116.52
-103.75
-79.95
-47.56
-11.11
24.11
53.59
74.76
87.14
91.79
90.42
84.59
75.54
64.25
51.84
39.70
29.26
21.74
17.77
17.24
19.37
23.03
27.02
30.39
32.57
33.43
33.12
31.86
29.82
26.98
23.05
17.72
10.79
2.35
-7.06
-16.65
-25.59
-33.35
-39.82
-45.33
-50.46
-55.83
-62.08
-69.71
-79.02
-89.67
-100.29
-108.33
-110.37
-103.26
-85.35
-57.53
-23.19
12.67
45.07
70.43
87.20
95.67
97.15
93.08
84.72
73.13
59.50
45.26
32.06
21.40
14.35
11.23
11.73
14.92
19.61
24.55
28.72
31.49
32.66
32.34
30.76
28.11
24.37
19.40
13.06
5.35
-3.44
-12.73
-21.87
-30.26
-37.59
-43.86
-49.43
-54.81
-60.60
-67.44
-75.88
-86.16
-97.82
-109.22
-117.49
-119.04
-110.77
-91.38
-62.23
-27.19
8.54
40.07
64.22
79.96
88.02
89.89
87.05
80.57
71.36
60.49
49.35
39.43
31.97
27.56
26.13
27.09
29.67
33.17
37.02
40.68
43.60
45.18
44.88
42.46
38.02
32.06
25.21
18.03
10.76
3.30
-4.66
-13.34
-22.65
-32.13
-41.06
-48.77
-54.91
-59.66
-63.72
-68.07
-73.86
-82.02
-92.74
-104.98
-116.19
-122.59
-120.21
-106.32
-80.75
-46.26
-7.85
28.82
59.20
80.91
93.83
99.33
99.18
94.84
87.38
77.68
66.85
56.25
47.23
40.76
37.15
36.03
36.67
38.28
40.29
42.38
44.25
45.55
45.74
44.28
40.77
35.23
28.08
20.00
11.71
3.67
-4.01
-11.50
-19.11
-26.97
-34.92
-42.52
-49.19
-54.55
-58.62
-62.00
-65.74
-71.10
-79.14
-90.08
-102.84
-114.84
-122.31
-121.33
-109.11
-85.21
-51.98
-14.07
23.04
54.59
77.69
91.69
97.45
96.64
90.93
81.75
70.41
58.27
46.79
37.23
30.49
26.88
26.07
27.42
30.17
33.70
37.48
41.18
44.33
46.40
46.79
45.03
40.99
35.03
27.79
20.02
12.16
4.25
-3.98
-12.83
-22.30
-31.99
-41.18
-49.13
-55.44
-60.22
-64.12
-68.20
-73.62
-81.33
-91.47
-102.93
-113.15
-118.53
-115.36
-101.23
-76.10
-42.67
-5.63
29.77
59.22
80.33
92.74
97.44
95.95
89.72
80.01
68.02
55.12
42.82
32.51
25.16
21.11
20.12
21.50
24.41
28.06
31.80
35.09
37.42
38.34
37.48
34.73
30.29
24.65
18.40
12.01
5.66
-0.78
-7.60
-14.95
-22.75
-30.58
-37.91
-44.29
-49.63
-54.27
-58.91
-64.44
-71.71
-81.18
-92.42
-103.77
-112.27
-114.26
-106.53
-87.56
-58.44
-22.79
14.23
47.57
73.60
90.78
99.41
100.81
96.54
88.01
76.46
63.22
49.79
37.70
28.21
22.07
19.34
19.55
21.90
25.47
29.41
33.01
35.70
37.07
36.82
34.78
31.02
25.81
19.55
12.77
5.76
-1.35
-8.70
-16.48
-24.75
-33.24
-41.36
-48.51
-54.31
-58.84
-62.68
-66.77
-72.20
-79.79
-89.62
-100.62
-110.30
-115.10
-111.33
-96.56
-70.73
-36.57
1.07
36.74
66.03
86.58
98.20
102.09
99.91
93.08
82.72
69.89
55.91
42.38
30.89
22.66
18.21
17.33
19.18
22.64
26.55
30.04
32.53
33.81
33.83
32.64
30.23
26.47
21.24
14.43
6.14
-3.36
-13.54
-23.71
-33.19
-41.41
-48.10
-53.41
-57.85
-62.18
-67.28
-73.90
-82.48
-92.78
-103.57
-112.40
-116.00
-111.11
-95.70
-69.99
-36.77
-0.64
33.33
61.12
80.61
91.64
95.33
93.15
86.36
76.01
63.13
49.07
35.55
24.30
16.66
13.20
13.60
16.78
21.27
25.66
28.97
30.81
31.29
30.79
29.60
27.70
24.70
20.06
13.37
4.63
-5.62
-16.43
-26.76
-35.80
-43.17
-49.03
-54.01
-59.00
-64.96
-72.77
-82.92
-95.15
-108.01
-118.84
-124.06
-120.16
-104.95
-78.56
-43.84
-5.55
30.95
61.27
82.97
95.66
100.36
98.58
91.77
81.12
67.80
53.31
39.47
28.14
20.73
17.74
18.64
22.12
26.53
30.50
33.21
34.53
34.75
34.26
33.16
31.14
27.60
21.93
13.84
3.72
-7.52
-18.63
-28.46
-36.39
-42.47
-47.35
-52.02
-57.46
-64.46
-73.53
-84.65
-97.05
-108.84
-117.04
-118.07
-108.92
-88.38
-57.83
-21.14
16.48
50.02
76.06
93.28
102.07
103.73
99.65
90.98
78.84
64.60
50.09
37.29
27.99
23.16
22.70
25.54
29.97
34.33
37.43
38.92
39.12
38.63
37.85
36.64
34.28
29.87
22.77
13.08
1.65
-10.06
-20.62
-29.12
-35.48
-40.47
-45.30
-51.25
-59.26
-69.83
-82.71
-96.74
-109.69
-118.37
-119.28
-109.70
-88.85
-58.50
-22.66
13.59
45.61
70.36
86.68
94.88
95.92
90.83
80.65
66.69
50.81
35.28
22.41
13.83
10.02
10.32
13.19
16.95
20.35
22.86
24.60
25.97
27.08
27.54
26.37
22.52
15.36
5.15
-6.97
-19.24
-30.03
-38.40
-44.39
-48.93
-53.48
-59.50
-68.09
-79.59
-93.32
-107.29
-118.30
-122.49
-116.46
-98.58
-69.89
-34.07
3.56
37.73
64.67
82.76
92.35
94.75
91.44
83.59
72.22
58.60
44.41
31.69
22.32
17.45
17.16
20.49
25.74
31.08
35.12
37.21
37.46
36.50
34.97
33.13
30.60
26.57
20.24
11.24
-0.04
-12.47
-24.64
-35.31
-43.90
-50.55
-56.02
-61.35
-67.61
-75.63
-85.99
-98.65
-112.52
-125.24
-133.18
-132.35
-119.74
-94.69
-59.57
-19.23
20.46
54.43
79.76
95.87
103.87
105.45
102.06
94.72
84.32
72.03
59.55
48.79
41.32
37.91
38.31
41.32
45.33
48.80
50.67
50.61
48.82
45.81
42.04
37.72
32.74
26.70
19.20
10.07
-0.43
-11.60
-22.48
-32.16
-40.11
-46.41
-51.67
-56.80
-62.77
-70.46
-80.54
-93.19
-107.77
-122.33
-133.49
-137.07
-129.36
-108.65
-76.31
-36.65
4.37
41.03
69.47
88.42
98.72
102.24
100.77
95.55
87.44
77.30
66.34
56.10
48.00
43.04
41.37
42.43
45.13
48.27
50.84
52.26
52.32
51.12
48.79
45.47
41.19
35.87
29.38
21.64
12.64
2.57
-8.16
-18.93
-29.07
-37.98
-45.40
-51.47
-56.78
-62.18
-68.68
-77.20
-88.22
-101.37
-114.88
-125.54
-129.25
-122.24
-102.69
-71.75
-33.53
6.09
41.33
68.28
85.59
94.16
96.03
93.23
87.20
78.86
69.03
58.74
49.26
41.81
37.27
35.85
37.17
40.33
44.21
47.78
50.22
51.15
50.49
48.46
45.28
41.06
35.76
29.20
21.20
11.83
1.38
-9.56
-20.30
-30.24
-38.98
-46.44
-52.83
-58.61
-64.41
-70.99
-79.18
-89.54
-101.94
-114.92
-125.58
-129.97
-124.36
-106.63
-77.53
-40.67
-1.58
34.14
62.40
81.54
92.04
95.61
94.13
88.99
81.15
71.54
61.34
51.97
44.80
40.65
39.61
41.02
43.78
46.81
49.32
50.87
51.28
50.48
48.35
44.80
39.85
33.69
26.64
18.96
10.77
2.02
-7.40
-17.39
-27.58
-37.28
-45.76
-52.53
-57.53
-61.25
-64.63
-68.87
-75.20
-84.41
-96.29
-109.21
-119.93
-124.31
-118.55
-100.65
-71.49
-34.85
3.79
38.93
66.63
85.30
95.38
98.41
96.03
89.57
80.11
68.73
56.86
46.04
37.63
32.40
30.30
30.70
32.66
35.32
38.08
40.56
42.45
43.38
42.91
40.75
36.81
31.36
24.91
17.98
10.89
3.67
-3.85
-11.85
-20.34
-29.01
-37.38
-44.89
-51.22
-56.33
-60.67
-65.05
-70.50
-78.05
-88.15
-100.17
-111.98
-120.12
-120.62
-110.34
-88.27
-56.26
-18.65
19.07
51.92
76.73
92.55
100.16
101.12
96.93
88.77
77.67
64.79
51.64
39.83
30.72
25.01
22.61
22.83
24.72
27.39
30.24
32.88
34.99
36.16
35.94
33.89
29.87
24.14
17.23
9.74
2.09
-5.60
-13.45
-21.59
-29.96
-38.18
-45.68
-51.92
-56.63
-60.00
-62.71
-65.80
-70.44
-77.52
-87.16
-98.16
-107.82
-112.39
-108.11
-92.64
-66.17
-31.71
5.70
40.59
68.70
87.92
98.31
101.27
98.56
91.63
81.53
69.18
55.71
42.53
31.12
22.63
17.62
15.96
17.01
19.77
23.26
26.59
29.11
30.36
30.03
28.03
24.41
19.40
13.33
6.56
-0.66
-8.16
-15.87
-23.70
-31.44
-38.75
-45.26
-50.72
-55.10
-58.70
-62.18
-66.38
-72.19
-80.16
-90.05
-100.34
-108.25
-110.22
-103.07
-85.23
-57.66
-23.77
11.51
43.29
68.06
84.37
92.59
94.11
90.48
82.96
72.47
60.00
46.78
34.33
24.16
17.35
14.19
14.17
16.19
18.97
21.43
22.95
23.34
22.68
21.14
18.83
15.77
11.90
7.21
1.69
-4.60
-11.50
-18.76
-25.99
-32.74
-38.61
-43.40
-47.27
-50.70
-54.49
-59.50
-66.47
-75.58
-86.17
-96.41
-103.46
-103.98
-95.25
-76.23
-48.25
-14.91
19.00
48.83
71.45
85.67
92.02
91.91
86.82
77.94
66.29
53.00
39.58
27.69
18.74
13.42
11.42
11.65
12.77
13.72
14.11
14.22
14.55
15.33
16.15
16.05
13.85
8.75
0.76
-9.23
-19.79
-29.50
-37.45
-43.51
-48.30
-52.94
-58.63
-66.38
-76.54
-88.50
-100.43
-109.40
-111.90
-104.98
-87.36
-60.12
-26.64
8.41
40.45
66.21
84.20
94.47
97.89
95.42
87.96
76.45
62.26
47.25
33.50
22.74
15.86
12.65
12.05
12.68
13.46
13.88
14.08
14.42
15.10
15.78
15.60
13.47
8.56
0.77
-9.20
-20.02
-30.21
-38.66
-45.03
-49.83
-54.21
-59.55
-67.09
-77.51
-90.53
-104.63
-116.97
-123.88
-121.74
-108.31
-83.74
-50.81
-14.20
20.98
50.59
72.43
86.16
92.58
92.81
87.82
78.50
66.03
52.11
38.83
28.17
21.35
18.49
18.69
20.46
22.42
23.80
24.57
25.23
26.27
27.61
28.48
27.56
23.60
15.99
5.16
-7.55
-20.33
-31.60
-40.60
-47.59
-53.73
-60.57
-69.56
-81.55
-96.34
-112.40
-126.84
-135.88
-135.70
-123.78
-99.86
-66.39
-27.90
10.27
43.55
69.17
86.35
95.75
98.59
96.01
88.94
78.37
65.72
52.85
41.72
33.88
29.97
29.56
31.40
33.91
35.77
36.37
35.80
34.70
33.63
32.69
31.26
28.21
22.40
13.33
1.47
-11.77
-24.64
-35.69
-44.35
-51.04
-56.92
-63.33
-71.48
-82.11
-95.35
-110.37
-125.15
-136.37
-139.98
-132.39
-111.94
-79.84
-40.17
1.36
39.11
69.18
90.05
102.23
107.27
106.78
101.96
93.72
83.09
71.51
60.74
52.48
47.82
46.90
48.91
52.35
55.61
57.51
57.54
55.89
53.14
49.86
46.25
42.06
36.69
29.54
20.29
9.22
-2.86
-14.83
-25.66
-34.75
-42.17
-48.61
-55.07
-62.57
-71.94
-83.73
-97.86
-113.36
-128.00
-138.31
-140.23
-130.39
-107.57
-73.51
-32.71
8.92
45.89
74.62
93.95
104.52
107.82
105.32
98.14
87.32
74.24
60.73
48.81
40.22
35.85
35.60
38.38
42.60
46.61
49.12
49.50
47.76
44.42
40.11
35.33
30.18
24.34
17.32
8.78
-1.26
-12.24
-23.26
-33.36
-41.89
-48.72
-54.27
-59.31
-64.82
-71.77
-80.96
-92.82
-106.89
-121.38
-133.00
-137.59
-131.26
-112.03
-80.87
-41.71
-0.32
37.56
67.85
88.88
101.09
105.98
105.16
99.88
91.22
80.46
69.27
59.49
52.55
49.03
48.54
49.94
52.01
53.82
55.07
55.84
56.28
56.29
55.37
52.82
48.13
41.30
32.96
24.17
15.99
8.98
2.93
-2.99
-9.84
-18.27
-28.18
-38.67
-48.50
-56.61
-62.68
-67.29
-71.74
-77.61
-86.31
-98.53
-113.68
-129.58
-142.44
-147.68
-141.28
-121.38
-89.28
-49.36
-7.74
29.75
59.34
79.95
92.63
99.27
101.38
99.67
94.39
86.05
75.96
66.07
58.39
54.19
53.54
55.40
58.18
60.52
61.82
62.29
62.61
63.23
63.94
63.75
61.31
55.62
46.63
35.37
23.63
13.18
5.02
-1.00
-6.00
-11.47
-18.50
-27.32
-37.19
-46.81
-54.93
-60.80
-64.56
-67.11
-69.86
-74.36
-81.90
-93.18
-107.75
-123.67
-137.38
-144.35
-140.28
-122.69
-92.12
-52.27
-8.95
31.76
65.27
89.42
104.27
111.16
111.66
107.06
98.41
86.98
74.50
63.03
54.34
49.42
48.17
49.53
52.07
54.58
56.47
57.82
59.02
60.30
61.35
61.36
59.29
54.37
46.61
36.80
26.22
16.22
7.56
0.27
-6.34
-13.23
-21.10
-30.06
-39.51
-48.51
-56.11
-61.87
-65.98
-69.26
-72.91
-78.16
-86.01
-96.83
-109.94
-123.26
-133.39
-136.24
-128.29
-107.92
-76.37
-37.65
2.64
39.03
67.65
86.91
97.21
100.02
97.00
89.49
78.65
65.78
52.47
40.50
31.41
26.13
24.69
26.38
30.05
34.44
38.51
41.55
43.15
43.14
41.46
38.20
33.53
27.73
21.18
14.17
6.83
-0.85
-8.99
-17.68
-26.80
-35.94
-44.55
-52.08
-58.21
-63.05
-67.19
-71.67
-77.68
-86.09
-96.83
-108.32
-117.41
-120.09
-112.71
-93.53
-63.61
-26.79
11.50
45.88
72.62
90.22
99.11
100.79
96.86
88.66
77.29
63.99
50.31
37.97
28.49
22.75
20.86
22.13
25.44
29.56
33.42
36.29
37.75
37.69
36.14
33.26
29.17
24.02
17.91
10.88
2.94
-5.83
-15.25
-24.97
-34.49
-43.30
-51.04
-57.63
-63.34
-68.75
-74.66
-81.90
-91.13
-102.42
-114.79
-125.95
-132.47
-130.57
-117.45
-92.51
-58.04
-18.66
19.96
52.88
77.15
92.09
98.80
99.06
94.58
86.62
76.21
64.44
52.66
42.28
34.52
30.00
28.67
29.88
32.61
35.81
38.66
40.58
41.30
40.72
38.75
35.35
30.47
24.14
16.48
7.72
-1.87
-11.92
-22.01
-31.64
-40.36
-47.89
-54.31
-60.05
-65.83
-72.50
-80.87
-91.49
-104.33
-118.38
-131.31
-139.56
-139.12
-126.91
-102.09
-66.84
-25.91
14.74
49.84
76.19
92.97
101.29
102.94
99.61
92.50
82.50
70.67
58.42
47.40
39.10
34.47
33.64
35.88
39.94
44.39
47.99
49.99
50.16
48.65
45.76
41.67
36.35
29.54
20.96
10.54
-1.42
-14.24
-27.02
-38.81
-48.93
-57.14
-63.63
-69.09
-74.42
-80.71
-88.95
-99.70
-112.61
-125.95
-136.55
-140.31
-133.47
-114.03
-82.82
-43.54
-1.74
36.93
68.31
90.54
103.83
109.54
109.25
104.16
95.25
83.55
70.49
57.86
47.38
40.34
37.13
37.28
39.63
42.82
45.64
47.35
47.75
47.03
45.52
43.36
40.39
36.11
29.91
21.43
10.77
-1.42
-14.03
-25.84
-35.95
-44.03
-50.37
-55.74
-61.13
-67.51
-75.64
-86.00
-98.41
-111.63
-123.13
-129.24
-126.14
-111.20
-84.34
-48.46
-8.69
29.17
60.44
82.69
95.70
100.71
99.26
92.61
81.73
67.71
52.19
37.30
25.23
17.63
15.07
16.89
21.52
27.05
31.83
34.94
36.31
36.40
35.81
34.79
32.95
29.52
23.62
14.86
3.60
-9.08
-21.70
-32.89
-41.95
-48.93
-54.59
-60.06
-66.46
-74.75
-85.43
-98.38
-112.38
-124.88
-132.22
-130.51
-117.01
-91.38
-56.26
-16.63
21.75
54.05
77.58
91.87
97.95
97.27
91.07
80.33
66.22
50.55
35.65
23.93
17.07
15.49
18.20
23.26
28.52
32.38
34.15
34.09
32.96
31.45
29.78
27.49
23.64
17.29
8.03
-3.70
-16.66
-29.25
-40.00
-48.26
-54.31
-59.29
-64.69
-71.89
-81.79
-94.45
-108.81
-122.59
-132.35
-134.15
-124.73
-102.80
-69.91
-30.30
10.37
46.69
75.07
94.28
105.04
108.91
107.36
101.34
91.54
78.98
65.23
52.35
42.30
36.36
34.66
36.23
39.41
42.47
44.19
44.15
42.66
40.33
37.75
34.98
31.63
26.99
20.37
11.50
0.68
-11.26
-23.15
-33.96
-43.01
-50.26
-56.21
-61.72
-67.79
-75.44
-85.45
-98.14
-112.75
-127.16
-137.73
-140.15
-130.82
-108.32
-74.34
-33.42
8.39
45.49
74.18
93.26
103.59
106.95
105.13
99.40
90.68
79.99
68.64
58.25
50.35
45.86
44.87
46.62
49.88
53.32
55.96
57.22
56.87
54.90
51.44
46.61
40.63
33.71
26.03
17.66
8.51
-1.46
-12.14
-23.13
-33.79
-43.42
-51.54
-58.12
-63.58
-68.77
-74.75
-82.64
-93.29
-106.70
-121.48
-134.62
-141.85
-138.90
-123.07
-94.54
-56.65
-14.92
24.67
57.53
81.39
96.16
103.05
103.60
99.13
90.78
79.90
68.16
57.45
49.37
44.87
43.97
45.95
49.70
54.16
58.49
62.18
64.85
66.13
65.53
62.61
57.20
49.57
40.46
30.82
21.44
12.60
4.00
-5.02
-14.96
-25.84
-37.08
-47.68
-56.72
-63.74
-68.97
-73.24
-77.80
-84.01
-92.98
-105.01
-118.96
-131.97
-139.76
-137.80
-122.97
-95.06
-57.13
-14.75
25.85
59.74
84.43
99.74
106.90
107.50
102.85
94.05
82.39
69.68
58.02
49.25
44.35
43.18
44.64
47.25
49.79
51.69
52.98
54.05
55.01
55.54
54.81
51.89
46.27
38.20
28.67
19.01
10.26
2.75
-4.03
-11.00
-19.01
-28.29
-38.33
-48.10
-56.56
-63.08
-67.73
-71.25
-74.88
-80.00
-87.82
-98.82
-112.21
-125.55
-134.92
-135.85
-124.81
-100.73
-65.74
-24.71
16.25
51.72
78.42
95.56
104.18
105.97
102.49
94.88
84.23
71.95
59.89
49.93
43.45
40.79
41.33
43.77
46.79
49.51
51.59
53.09
54.09
54.40
53.48
50.65
45.45
37.95
28.83
19.23
10.27
2.60
-3.87
-9.82
-16.15
-23.46
-31.67
-40.10
-47.78
-53.97
-58.53
-62.03
-65.66
-70.81
-78.68
-89.72
-103.13
-116.56
-126.27
-128.04
-118.52
-96.61
-64.17
-25.73
12.99
46.79
72.38
88.74
96.66
97.71
93.42
84.97
73.41
60.02
46.46
34.59
26.02
21.57
21.15
23.72
27.80
31.81
34.61
35.65
34.96
32.92
29.97
26.39
22.10
16.80
10.16
1.97
-7.54
-17.80
-27.87
-36.84
-44.06
-49.37
-53.16
-56.18
-59.38
-63.70
-69.93
-78.55
-89.32
-100.82
-110.33
-114.19
-108.82
-92.19
-64.84
-30.08
6.92
40.75
67.41
85.11
94.05
95.59
91.32
82.55
70.39
56.10
41.34
28.05
18.00
12.28
11.01
13.36
17.83
22.75
26.81
29.32
30.29
30.18
29.56
28.71
27.37
24.83
20.30
13.24
3.75
-7.43
-19.15
-30.19
-39.65
-47.27
-53.36
-58.73
-64.35
-71.18
-79.95
-90.93
-103.57
-116.17
-125.77
-128.64
-121.38
-102.24
-72.19
-34.89
4.28
39.91
68.16
87.37
97.81
100.74
97.46
89.02
76.40
61.03
44.97
30.65
20.15
14.56
13.58
15.78
19.19
22.09
23.64
23.86
23.47
23.15
23.04
22.54
20.50
15.81
7.96
-2.66
-14.77
-26.74
-37.20
-45.51
-51.95
-57.51
-63.53
-71.30
-81.73
-95.01
-110.23
-125.10
-136.04
-138.81
-129.88
-107.86
-74.38
-33.92
7.50
44.23
72.53
91.17
101.01
103.83
101.23
94.25
83.64
70.37
56.08
42.91
32.98
27.63
26.99
29.92
34.52
38.85
41.56
42.19
41.07
38.95
36.44
33.66
30.20
25.29
18.21
8.65
-2.98
-15.65
-28.06
-39.05
-48.04
-55.18
-61.27
-67.45
-74.91
-84.62
-97.11
-112.07
-127.95
-141.73
-149.28
-146.45
-130.52
-101.49
-62.54
-19.12
22.59
57.56
83.06
98.79
106.10
106.91
102.96
95.54
85.69
74.53
63.43
53.85
46.97
43.38
42.84
44.42
46.80
48.76
49.51
48.80
46.87
44.15
40.92
37.19
32.64
26.84
19.46
10.43
0.07
-10.99
-21.92
-32.00
-40.81
-48.36
-55.03
-61.52
-68.57
-77.00
-87.52
-100.51
-115.59
-131.00
-143.46
-148.67
-142.59
-123.14
-91.27
-51.11
-8.67
30.09
60.98
82.38
94.84
99.92
99.22
93.88
84.80
73.19
60.87
50.11
42.98
40.68
43.09
48.80
55.67
61.58
65.12
65.89
64.43
61.62
58.12
53.90
48.28
40.35
29.50
15.97
0.92
-13.95
-27.02
-37.31
-44.84
-50.42
-55.39
-61.09
-68.64
-78.83
-91.79
-106.61
-121.06
-131.59
-134.06
-125.11
-103.51
-71.02
-31.98
7.94
43.51
71.31
90.09
100.34
103.32
100.41
92.88
82.11
69.80
57.92
48.29
42.04
39.31
39.33
40.90
42.86
44.53
45.76
46.54
46.74
45.77
42.75
36.83
27.72
15.98
2.86
-10.07
-21.52
-30.95
-38.74
-46.02
-54.35
-65.13
-78.99
-95.20
-111.34
-123.53
-127.34
-119.26
-98.10
-65.68
-26.52
13.68
49.71
78.15
97.78
108.94
112.59
109.69
101.16
88.23
72.79
57.32
44.31
35.47
31.18
30.55
31.89
33.50
34.33
34.20
33.56
32.90
32.23
30.87
27.69
21.67
12.50
0.84
-11.86
-23.94
-34.18
-42.24
-48.73
-54.90
-62.19
-71.80
-84.26
-99.01
-114.10
-126.23
-131.30
-125.54
-107.02
-76.55
-37.79
3.75
42.38
73.75
95.64
107.76
111.01
106.72
96.28
81.27
63.77
46.21
31.05
20.10
14.06
12.45
13.96
17.11
20.72
24.18
27.34
30.10
32.09
32.52
30.44
25.11
16.54
5.53
-6.45
-17.87
-27.71
-35.82
-42.99
-50.62
-60.19
-72.70
-88.02
-104.45
-118.71
-126.45
-123.54
-107.54
-78.87
-41.05
0.25
38.95
70.43
92.43
105.03
109.68
108.03
101.30
90.31
76.04
60.09
44.68
32.20
24.36
21.69
23.35
27.56
32.25
35.80
37.40
37.06
35.30
32.72
29.63
25.95
21.22
14.92
6.68
-3.39
-14.72
-26.32
-37.13
-46.29
-53.49
-59.00
-63.62
-68.40
-74.47
-82.81
-94.03
-107.91
-122.91
-135.85
-142.39
-138.17
-120.46
-89.58
-49.21
-5.34
35.62
68.86
92.17
105.89
111.71
111.48
106.50
97.54
85.51
71.81
58.43
47.45
40.35
37.58
38.43
41.45
45.04
47.94
49.50
49.61
48.47
46.31
43.23
39.14
33.89
27.30
19.31
9.95
-0.53
-11.73
-23.09
-33.99
-43.87
-52.40
-59.59
-65.80
-71.80
-78.57
-87.18
-98.35
-111.89
-126.09
-137.60
-142.02
-135.23
-115.09
-82.50
-41.58
1.54
40.71
71.44
91.89
102.58
105.34
102.25
94.92
84.52
72.17
59.27
47.46
38.29
32.73
30.91
32.16
35.39
39.45
43.44
46.79
49.13
50.16
49.58
47.12
42.71
36.52
28.93
20.35
11.08
1.24
-9.18
-20.08
-31.14
-41.77
-51.29
-59.17
-65.31
-70.17
-74.65
-79.96
-87.29
-97.35
-109.76
-122.61
-132.39
-134.74
-125.76
-103.67
-69.78
-28.46
14.22
52.41
82.03
101.56
111.57
113.71
109.68
100.84
88.36
73.62
58.35
44.50
33.67
26.76
23.72
23.76
25.82
28.90
32.32
35.62
38.41
40.24
40.57
39.00
35.40
30.08
23.57
16.49
9.17
1.61
-6.40
-15.11
-24.46
-34.05
-43.20
-51.28
-57.94
-63.32
-68.08
-73.25
-80.00
-89.22
-100.96
-113.80
-124.73
-129.57
-124.29
-106.50
-76.76
-38.67
2.10
39.61
69.44
89.61
100.38
103.32
100.19
92.33
80.74
66.50
51.10
36.48
24.61
16.92
13.89
14.90
18.58
23.22
27.34
30.09
31.28
31.16
30.14
28.42
25.85
21.97
16.28
8.45
-1.42
-12.71
-24.44
-35.52
-45.06
-52.65
-58.46
-63.10
-67.51
-72.69
-79.44
-88.16
-98.50
-108.95
-116.84
-118.67
-111.09
-92.25
-62.80
-26.09
12.70
48.15
76.17
94.81
104.14
105.43
100.22
89.90
75.73
59.25
42.43
27.47
16.32
10.08
8.77
11.31
15.98
20.98
24.90
27.08
27.58
26.91
25.65
24.07
21.94
18.61
13.35
5.76
-4.02
-15.23
-26.72
-37.36
-46.38
-53.63
-59.50
-64.82
-70.59
-77.78
-87.15
-98.85
-112.00
-124.35
-132.35
-131.96
-119.99
-95.56
-60.74
-20.28
19.92
54.60
80.49
96.75
104.28
104.71
99.52
89.85
76.77
61.72
46.67
33.78
24.86
20.70
20.94
24.19
28.56
32.42
34.75
35.42
34.87
33.71
32.27
30.31
27.10
21.79
13.83
3.33
-8.86
-21.39
-32.88
-42.37
-49.68
-55.39
-60.62
-66.68
-74.77
-85.64
-99.34
-114.77
-129.45
-139.63
-141.10
-130.54
-106.92
-72.26
-31.29
10.04
46.33
74.22
92.73
102.64
105.39
102.26
94.21
82.16
67.60
52.66
39.77
30.90
26.95
27.48
30.91
35.26
38.82
40.71
41.01
40.37
39.54
38.75
37.52
34.79
29.45
20.93
9.51
-3.63
-16.88
-28.74
-38.41
-45.95
-52.20
-58.42
-65.95
-75.84
-88.66
-104.07
-120.42
-134.65
-142.58
-140.06
-124.43
-95.81
-57.43
-14.82
25.89
59.84
84.52
99.70
106.64
106.93
101.84
92.31
79.41
64.78
50.62
39.19
32.12
29.85
31.55
35.46
39.62
42.54
43.63
43.17
41.86
40.33
38.71
36.43
32.57
26.18
16.88
5.02
-8.27
-21.51
-33.36
-43.02
-50.52
-56.52
-62.12
-68.56
-76.91
-87.86
-101.27
-115.78
-128.54
-135.64
-133.08
-118.30
-91.33
-55.18
-15.02
23.48
55.85
79.74
94.83
102.03
102.52
97.25
87.13
73.47
58.28
44.08
33.30
27.54
27.00
30.54
36.17
41.74
45.68
47.38
47.15
45.73
43.79
41.43
38.07
32.75
24.65
13.62
0.45
-13.38
-26.23
-36.82
-44.76
-50.55
-55.34
-60.51
-67.32
-76.67
-88.78
-102.86
-116.86
-127.46
-130.66
-122.98
-102.86
-71.48
-32.75
7.82
44.79
74.30
94.73
106.41
110.71
109.19
103.13
93.60
81.89
69.71
59.05
51.71
48.72
50.06
54.61
60.62
66.28
70.22
71.79
71.01
68.36
64.42
59.61
54.12
47.87
40.65
32.18
22.40
11.53
0.13
-10.99
-21.04
-29.48
-36.30
-42.02
-47.55
-54.01
-62.45
-73.67
-87.82
-103.97
-119.78
-131.54
-134.97
-126.52
-104.89
-71.85
-31.89
9.06
45.45
73.64
92.33
102.10
104.49
101.08
93.21
82.06
69.02
55.78
44.12
35.54
30.88
30.11
32.47
36.67
41.29
45.14
47.38
47.62
45.79
42.05
36.60
29.73
21.75
12.95
3.59
-6.15
-16.13
-26.17
-35.99
-45.17
-53.22
-59.78
-64.67
-68.07
-70.57
-73.11
-76.90
-83.11
-92.38
-104.11
-115.97
-124.14
-124.17
-112.57
-88.29
-53.51
-13.13
26.85
61.12
86.52
102.32
109.49
109.65
104.23
94.33
81.09
66.05
51.24
38.82
30.35
26.39
26.38
28.91
32.34
35.26
36.79
36.65
34.93
31.95
28.02
23.36
18.04
11.99
5.03
-3.08
-12.39
-22.73
-33.58
-44.18
-53.74
-61.74
-68.16
-73.48
-78.54
-84.39
-92.01
-102.05
-114.46
-127.95
-139.85
-146.25
-143.09
-127.61
-99.62
-62.02
-20.03
20.37
54.34
79.28
94.84
102.15
102.72
97.83
88.49
75.89
61.74
48.21
37.51
31.19
29.64
32.03
36.59
41.31
44.60
45.70
44.79
42.64
40.05
37.38
34.24
29.67
22.70
12.84
0.52
-13.02
-26.14
-37.42
-46.13
-52.44
-57.26
-61.85
-67.48
-75.22
-85.61
-98.39
-112.19
-124.24
-130.74
-127.82
-112.90
-85.89
-49.55
-8.89
30.40
63.53
87.80
102.61
108.90
108.20
102.00
91.68
78.69
64.77
51.80
41.47
34.86
32.17
32.81
35.77
39.97
44.54
48.90
52.58
55.11
55.97
54.64
50.91
44.94
37.34
28.87
20.18
11.53
2.78
-6.46
-16.43
-27.03
-37.76
-47.88
-56.72
-64.07
-70.24
-76.07
-82.70
-91.30
-102.61
-116.30
-130.51
-141.78
-145.69
-138.20
-117.21
-83.71
-41.78
2.60
43.30
75.85
98.23
110.71
114.87
112.63
105.66
95.35
83.04
70.28
58.69
49.61
43.78
41.26
41.46
43.50
46.53
49.89
53.12
55.83
57.59
57.89
56.15
52.01
45.50
37.05
27.49
17.71
8.35
-0.40
-8.87
-17.58
-26.90
-36.75
-46.53
-55.37
-62.53
-67.80
-71.64
-75.20
-79.92
-87.07
-97.06
-108.92
-120.02
-126.47
-124.14
-110.10
-83.95
-48.24
-7.87
31.35
64.50
88.68
103.29
109.36
108.63
102.72
92.91
80.32
66.17
51.99
39.34
29.55
23.32
20.62
20.84
22.99
26.04
29.16
31.72
33.40
33.99
33.38
31.46
28.10
23.18
16.68
8.71
-0.48
-10.49
-20.77
-30.72
-39.75
-47.44
-53.67
-58.69
-63.08
-67.77
-73.74
-81.86
-92.39
-104.55
-116.16
-123.78
-123.48
-112.16
-88.83
-55.38
-16.28
22.77
56.56
81.75
97.38
104.25
103.99
98.13
87.81
74.02
58.07
41.79
27.31
16.50
10.42
8.97
11.03
14.86
18.85
21.89
23.72
24.64
25.21
25.67
25.72
24.52
21.12
14.83
5.75
-5.27
-16.78
-27.31
-35.88
-42.27
-47.15
-51.63
-57.02
-64.37
-74.24
-86.46
-99.84
-111.97
-119.43
-118.53
-106.46
-82.60
-49.06
-10.36
27.91
60.80
85.24
100.35
106.88
106.22
99.73
88.51
73.74
57.05
40.55
26.37
16.14
10.41
8.65
9.49
11.43
13.37
14.95
16.43
18.26
20.54
22.71
23.58
21.72
16.10
6.63
-5.72
-19.15
-31.76
-42.18
-50.03
-55.96
-61.28
-67.48
-75.75
-86.71
-99.97
-113.98
-125.84
-131.75
-127.87
-111.74
-83.38
-45.72
-3.94
36.13
69.65
93.94
108.49
114.29
112.81
105.40
93.27
77.79
60.80
44.45
30.75
20.97
15.27
12.83
12.34
12.64
13.18
14.00
15.45
17.66
20.12
21.64
20.81
16.55
8.68
-1.94
-13.66
-24.74
-33.97
-41.10
-46.88
-52.70
-60.17
-70.54
-84.19
-100.16
-115.90
-127.55
-130.75
-122.05
-100.25
-67.15
-27.26
13.59
49.95
78.11
96.61
105.79
106.89
101.32
90.42
75.68
58.99
42.58
28.57
18.36
12.33
9.83
9.64
10.57
11.88
13.43
15.39
17.81
20.25
21.71
20.90
16.75
8.96
-1.80
-14.01
-25.91
-36.15
-44.27
-50.84
-57.17
-64.84
-75.12
-88.48
-104.08
-119.44
-130.70
-133.38
-123.83
-100.73
-65.91
-24.11
18.47
56.08
84.97
103.85
113.38
115.05
110.32
100.38
86.53
70.52
54.61
41.10
31.54
26.33
24.64
25.02
26.00
26.74
27.17
27.64
28.46
29.38
29.47
27.42
22.05
13.01
0.96
-12.51
-25.54
-36.67
-45.41
-52.32
-58.78
-66.49
-76.90
-90.72
-107.36
-124.62
-138.73
-144.98
-139.20
-119.26
-86.23
-44.38
0.10
40.92
73.48
95.75
107.91
111.39
107.82
98.62
85.15
69.02
52.29
37.16
25.35
17.68
13.94
13.26
14.56
17.01
20.14
23.66
27.11
29.70
30.41
28.23
22.71
14.10
3.39
-8.06
-18.97
-28.69
-37.32
-45.76
-55.44
-67.74
-83.39
-101.76
-120.37
-135.02
-140.76
-133.47
-111.48
-76.57
-33.62
10.82
50.62
81.67
102.39
113.27
115.75
111.24
100.93
86.12
68.66
51.14
36.37
26.55
22.54
23.55
27.58
32.32
36.02
38.00
38.66
38.78
38.89
38.77
37.37
33.37
25.83
14.83
1.53
-12.18
-24.43
-34.07
-41.10
-46.59
-52.22
-59.77
-70.55
-84.99
-102.24
-119.85
-133.90
-139.72
-133.26
-112.73
-79.60
-38.51
4.17
42.35
72.00
91.76
102.50
106.04
104.07
97.74
87.87
75.60
62.61
50.98
42.57
38.50
38.74
42.28
47.54
52.86
56.92
59.02
58.99
57.13
53.90
49.73
44.82
39.07
32.18
23.83
13.89
2.67
-9.17
-20.74
-31.25
-40.29
-47.90
-54.53
-60.91
-67.78
-75.96
-86.13
-98.57
-112.61
-126.10
-135.44
-136.40
-125.56
-101.86
-67.33
-26.62
14.50
50.90
79.39
98.85
109.70
113.00
109.82
101.34
89.00
74.71
60.73
49.06
40.99
36.89
36.31
38.26
41.70
45.72
49.63
52.90
55.03
55.51
53.88
49.94
43.90
36.34
28.05
19.67
11.54
3.51
-4.76
-13.58
-22.90
-32.30
-41.08
-48.60
-54.58
-59.33
-63.63
-68.67
-75.74
-85.83
-99.10
-114.26
-128.33
-136.97
-135.65
-121.28
-93.54
-55.43
-12.42
29.23
64.32
89.91
105.47
112.08
111.40
105.04
94.45
81.13
66.93
53.90
43.89
38.02
36.41
38.23
42.10
46.58
50.70
53.97
56.28
57.57
57.58
55.74
51.49
44.56
35.32
24.77
14.14
4.46
-3.93
-11.47
-19.03
-27.36
-36.61
-46.18
-54.99
-62.02
-66.87
-69.96
-72.37
-75.57
-80.99
-89.56
-101.28
-114.72
-126.84
-133.42
-130.09
-114.06
-85.29
-47.04
-4.88
35.03
67.84
91.11
104.71
109.95
108.47
101.62
90.55
76.68
61.92
48.56
38.61
33.18
32.16
34.36
38.11
42.00
45.29
47.87
49.98
51.65
52.49
51.67
48.39
42.24
33.58
23.49
13.35
4.32
-3.12
-9.33
-15.23
-21.77
-29.45
-38.00
-46.56
-54.05
-59.72
-63.53
-66.17
-68.90
-73.21
-80.37
-90.90
-104.12
-117.76
-128.05
-130.58
-121.66
-99.87
-66.87
-27.16
13.31
48.95
76.11
93.53
101.90
102.81
97.93
88.66
76.34
62.59
49.32
38.44
31.32
28.39
29.07
32.08
36.02
39.88
43.27
46.25
48.97
51.24
52.39
51.46
47.69
40.91
31.81
21.67
11.96
3.64
-3.13
-9.00
-15.01
-22.04
-30.33
-39.35
-48.09
-55.53
-61.10
-64.99
-68.07
-71.63
-77.05
-85.29
-96.42
-109.17
-120.74
-127.22
-124.57
-110.06
-83.50
-47.68
-7.70
30.60
62.44
85.14
98.30
103.08
101.12
93.90
82.62
68.51
53.14
38.43
26.27
17.99
14.07
14.09
16.99
21.51
26.54
31.21
34.89
37.17
37.66
36.16
32.64
27.40
20.93
13.75
6.25
-1.50
-9.63
-18.32
-27.52
-36.90
-45.86
-53.81
-60.41
-65.70
-70.17
-74.63
-80.04
-87.23
-96.56
-107.37
-117.59
-123.87
-122.32
-109.83
-85.44
-51.11
-11.37
28.05
61.95
87.07
102.49
109.13
108.70
102.93
93.12
80.40
65.98
51.40
38.31
28.17
21.83
19.35
20.09
22.99
26.88
30.74
33.80
35.60
35.84
34.43
31.39
26.85
21.05
14.21
6.48
-2.08
-11.44
-21.47
-31.79
-41.81
-50.91
-58.59
-64.82
-70.02
-75.00
-80.75
-88.24
-98.04
-109.97
-122.62
-133.21
-137.93
-132.89
-115.65
-86.35
-48.15
-6.43
32.87
65.04
87.70
100.82
105.85
104.59
98.43
88.36
75.34
60.71
46.32
34.10
25.57
21.32
20.91
23.10
26.39
29.45
31.55
32.57
32.79
32.59
32.04
30.78
28.06
23.02
15.13
4.51
-8.05
-21.19
-33.50
-43.90
-52.03
-58.25
-63.52
-69.09
-76.20
-85.74
-97.89
-111.75
-125.02
-134.13
-135.00
-124.35
-101.03
-66.81
-26.12
15.25
51.96
80.45
99.49
109.69
112.47
109.25
101.07
88.91
74.07
58.38
43.96
32.73
25.77
23.10
23.75
26.21
29.00
31.12
32.33
32.88
33.19
33.30
32.67
30.24
24.91
16.12
4.25
-9.32
-22.78
-34.49
-43.66
-50.56
-56.31
-62.35
-69.94
-79.88
-92.32
-106.55
-120.80
-132.11
-136.68
-130.90
-112.67
-82.48
-43.71
-1.75
37.66
70.09
93.27
106.91
111.97
109.65
101.09
87.53
70.71
52.98
36.98
24.91
17.92
15.75
17.07
20.04
23.11
25.48
27.13
28.46
29.76
30.71
30.36
27.47
21.12
11.23
-1.20
-14.44
-26.63
-36.52
-43.94
-49.78
-55.65
-63.34
-74.19
-88.55
-105.34
-121.86
-134.04
-137.32
-128.11
-105.14
-70.28
-28.22
14.88
53.30
83.19
103.07
113.32
115.21
110.07
99.05
83.45
65.22
46.91
31.33
20.62
15.64
15.75
19.06
23.33
26.81
28.74
29.42
29.66
30.15
30.74
30.47
27.86
21.77
11.99
-0.49
-13.82
-26.04
-35.88
-43.20
-48.97
-54.80
-62.41
-73.08
-87.34
-104.57
-122.73
-138.25
-146.51
-143.03
-125.16
-93.32
-51.39
-5.61
37.40
72.59
97.55
112.42
118.74
118.27
112.29
101.74
87.77
72.18
57.33
45.60
38.56
36.55
38.53
42.59
46.70
49.37
50.07
49.17
47.53
45.85
44.28
42.17
38.42
31.91
22.17
9.69
-4.19
-17.74
-29.51
-38.87
-46.11
-52.28
-58.71
-66.56
-76.69
-89.49
-104.69
-121.02
-135.82
-145.17
-144.82
-131.63
-105.12
-68.05
-25.71
15.79
51.49
78.71
97.09
107.62
111.60
109.99
103.61
93.52
81.31
69.04
58.62
51.33
47.56
46.89
48.49
51.39
54.79
58.04
60.60
61.99
61.68
59.20
54.30
47.09
38.12
28.27
18.36
8.88
-0.17
-9.21
-18.66
-28.64
-38.76
-48.28
-56.43
-62.88
-67.89
-72.37
-77.64
-85.12
-95.93
-110.26
-126.71
-142.00
-151.42
-150.07
-134.65
-104.99
-64.48
-19.13
24.36
60.68
87.13
103.58
111.52
112.75
108.78
100.76
89.97
78.11
67.22
59.12
54.77
54.01
55.78
58.64
61.41
63.57
65.12
66.21
66.77
66.30
64.04
59.31
51.97
42.53
32.05
21.72
12.41
4.32
-3.02
-10.46
-18.73
-27.98
-37.78
-47.17
-55.26
-61.56
-66.30
-70.41
-75.25
-82.30
-92.60
-106.17
-121.45
-135.10
-142.58
-139.36
-122.63
-92.64
-52.95
-9.50
31.30
64.44
87.45
100.28
104.45
101.90
94.34
83.17
69.82
56.02
43.70
34.61
29.83
29.47
32.72
38.19
44.35
49.88
53.99
56.29
56.70
55.25
51.98
46.90
40.19
32.11
23.13
13.68
4.07
-5.55
-15.18
-24.74
-33.95
-42.39
-49.65
-55.51
-60.16
-64.23
-68.66
-74.49
-82.54
-92.93
-104.56
-114.83
-120.01
-116.19
-100.75
-73.64
-37.78
1.67
38.91
69.30
90.34
101.85
105.09
101.81
93.57
81.69
67.55
52.86
39.54
29.33
23.28
21.50
23.20
27.14
32.02
36.86
41.03
44.08
45.65
45.31
42.75
37.94
31.24
23.38
15.18
7.20
-0.43
-8.03
-16.06
-24.83
-34.26
-43.76
-52.55
-59.96
-65.72
-70.09
-73.88
-78.21
-84.28
-92.97
-104.28
-116.79
-127.49
-132.20
-126.80
-108.81
-78.67
-39.89
1.87
40.69
72.07
93.96
106.46
110.96
109.01
101.92
90.81
77.05
62.43
48.97
38.41
31.67
28.74
28.84
30.87
33.88
37.20
40.49
43.47
45.71
46.59
45.46
41.88
35.90
28.11
19.45
10.83
2.74
-4.83
-12.37
-20.42
-29.26
-38.66
-47.92
-56.17
-62.77
-67.59
-71.26
-74.98
-80.23
-88.29
-99.52
-112.80
-125.25
-132.63
-130.51
-115.90
-88.52
-51.39
-9.95
29.64
62.36
85.56
99.04
104.26
103.14
97.33
87.93
75.90
62.42
49.05
37.47
29.07
24.59
23.94
26.25
30.23
34.55
38.12
40.31
40.93
40.09
37.96
34.63
30.05
24.07
16.55
7.55
-2.65
-13.57
-24.56
-34.94
-44.16
-51.89
-58.12
-63.22
-67.89
-73.09
-79.82
-88.83
-100.11
-112.40
-122.93
-127.78
-123.01
-106.10
-77.23
-39.61
1.37
39.78
70.99
92.69
104.90
109.00
106.66
99.17
87.44
72.48
55.85
39.63
26.05
16.82
12.54
12.63
15.62
19.76
23.56
26.21
27.58
28.05
28.01
27.57
26.36
23.64
18.62
10.85
0.54
-11.40
-23.62
-34.80
-44.05
-51.27
-57.09
-62.61
-69.03
-77.40
-88.27
-101.47
-115.72
-128.44
-136.00
-134.45
-120.91
-94.80
-58.46
-16.75
24.41
59.84
86.33
103.09
111.03
111.76
106.76
97.08
83.73
68.05
51.97
37.69
27.11
21.30
20.13
22.52
26.78
31.25
34.75
36.77
37.33
36.80
35.53
33.60
30.72
26.35
19.96
11.22
0.35
-11.98
-24.70
-36.70
-47.20
-55.94
-63.26
-69.98
-77.14
-85.76
-96.61
-109.83
-124.51
-138.33
-147.60
-148.02
-136.04
-110.38
-72.96
-28.60
16.29
55.70
85.63
104.79
114.06
115.41
110.71
101.43
88.65
73.60
57.98
43.79
32.93
26.53
24.69
26.44
30.20
34.30
37.51
39.28
39.73
39.26
38.26
36.78
34.47
30.69
24.73
16.28
5.56
-6.57
-18.89
-30.17
-39.67
-47.35
-53.90
-60.33
-67.73
-76.94
-88.48
-102.29
-117.58
-132.27
-143.01
-145.60
-136.28
-113.32
-78.05
-34.99
9.59
49.52
80.59
101.24
112.17
115.11
111.80
103.49
91.12
75.93
59.76
44.86
33.40
26.77
25.13
27.45
31.90
36.55
39.96
41.58
41.63
40.77
39.54
37.98
35.54
31.33
24.60
15.16
3.54
-9.06
-21.25
-31.84
-40.24
-46.70
-52.05
-57.53
-64.35
-73.53
-85.56
-100.10
-115.67
-129.37
-137.14
-134.85
-119.65
-91.36
-52.98
-10.01
31.26
65.63
90.27
104.82
110.53
109.16
102.16
90.61
75.70
59.05
42.89
29.59
20.97
17.71
19.15
23.60
28.93
33.35
35.92
36.60
36.05
35.02
33.86
32.28
29.43
24.30
16.31
5.63
-6.73
-19.22
-30.40
-39.39
-46.26
-51.87
-57.50
-64.43
-73.60
-85.46
-99.76
-115.23
-129.37
-138.45
-138.29
-125.57
-99.36
-61.98
-18.56
24.42
61.19
88.23
104.77
112.00
111.83
105.92
95.38
81.19
64.81
48.33
34.18
24.44
20.11
20.90
25.32
31.35
37.06
41.16
43.16
43.35
42.28
40.44
37.93
34.33
29.01
21.40
11.42
-0.44
-13.12
-25.45
-36.43
-45.57
-53.02
-59.39
-65.66
-72.87
-82.05
-93.97
-108.70
-125.06
-140.30
-150.14
-149.95
-136.22
-108.21
-68.63
-23.05
21.82
60.17
88.62
106.53
115.19
116.60
112.44
103.81
91.66
77.24
62.37
49.18
39.50
34.31
33.47
35.87
39.90
44.05
47.23
48.97
49.30
48.48
46.74
44.14
40.51
35.50
28.71
19.94
9.31
-2.69
-15.21
-27.33
-38.33
-47.84
-56.05
-63.54
-71.16
-79.81
-90.39
-103.37
-118.43
-133.93
-146.61
-152.09
-146.06
-125.96
-92.39
-49.33
-3.06
39.84
74.38
98.32
111.93
116.96
115.44
108.92
98.57
85.55
71.37
57.91
47.03
40.05
37.41
38.57
42.31
47.10
51.59
54.79
56.23
55.81
53.68
50.03
44.97
38.60
30.91
21.90
11.64
0.32
-11.63
-23.59
-34.81
-44.64
-52.79
-59.39
-65.06
-70.72
-77.38
-85.98
-97.06
-110.38
-124.47
-136.34
-141.85
-136.85
-118.66
-87.50
-46.77
-2.25
39.70
74.04
98.16
111.96
116.93
115.03
108.02
97.21
83.88
69.57
56.10
45.21
38.14
35.29
36.11
39.41
43.75
47.83
50.79
52.17
51.91
50.08
46.82
42.27
36.53
29.73
22.00
13.46
4.21
-5.59
-15.67
-25.68
-35.23
-43.95
-51.65
-58.37
-64.40
-70.33
-76.96
-85.27
-95.91
-108.72
-121.98
-132.30
-135.28
-126.93
-105.38
-71.97
-31.14
10.93
48.34
77.15
95.98
105.55
107.56
103.69
95.22
83.26
69.26
55.10
42.77
33.90
29.21
28.44
30.56
34.32
38.60
42.60
45.81
47.81
48.24
46.78
43.33
38.12
31.63
24.45
17.05
9.58
1.90
-6.27
-15.05
-24.27
-33.42
-41.84
-48.96
-54.63
-59.19
-63.44
-68.47
-75.43
-85.03
-97.05
-109.84
-120.21
-124.00
-117.35
-98.19
-67.41
-28.82
11.84
48.73
77.58
96.53
105.90
107.25
102.41
92.83
79.72
64.36
48.42
33.96
22.93
16.69
15.54
18.62
24.20
30.29
35.23
38.15
38.97
38.27
36.66
34.49
31.59
27.42
21.42
13.32
3.38
-7.64
-18.68
-28.76
-37.19
-43.82
-48.98
-53.36
-57.93
-63.63
-71.32
-81.39
-93.42
-105.73
-115.35
-118.45
-111.52
-92.70
-62.86
-25.70
13.30
48.58
76.09
94.15
103.13
104.51
99.85
90.27
76.70
60.40
43.24
27.65
15.86
9.31
8.11
11.08
16.32
21.85
26.18
28.67
29.40
28.91
27.70
25.96
23.40
19.40
13.31
4.90
-5.49
-16.88
-27.99
-37.73
-45.50
-51.42
-56.20
-60.84
-66.38
-73.70
-83.29
-95.05
-107.82
-119.09
-125.27
-122.57
-108.36
-82.43
-47.49
-8.50
28.81
59.78
81.86
94.74
99.50
97.68
90.48
78.83
63.78
46.95
30.61
17.20
8.61
5.58
7.44
12.40
18.25
23.17
26.24
27.62
28.02
28.21
28.37
27.95
25.89
21.18
13.39
2.94
-9.01
-20.97
-31.70
-40.58
-47.74
-53.88
-59.98
-67.03
-75.87
-87.01
-100.38
-114.93
-128.25
-136.70
-136.18
-123.60
-98.25
-62.49
-21.28
19.35
54.21
80.29
96.94
105.20
106.62
102.45
93.54
80.82
65.77
50.53
37.50
28.64
24.76
25.32
28.75
33.06
36.60
38.51
38.83
38.17
37.20
36.15
34.67
31.87
26.78
18.84
8.28
-3.95
-16.44
-27.87
-37.42
-44.99
-51.19
-56.94
-63.28
-71.15
-81.28
-93.92
-108.48
-123.10
-134.50
-138.54
-131.55
-111.70
-80.09
-40.75
0.64
38.39
68.52
89.42
101.47
106.09
104.81
98.73
88.81
76.21
62.62
50.07
40.44
34.93
33.71
35.87
39.91
44.22
47.61
49.52
50.01
49.38
47.96
45.83
42.74
38.29
32.04
23.80
13.74
2.37
-9.47
-20.89
-31.12
-39.75
-46.86
-52.93
-58.76
-65.29
-73.41
-83.79
-96.34
-109.80
-121.50
-127.61
-124.27
-108.96
-81.76
-45.75
-6.09
31.49
62.48
84.50
97.38
102.30
100.91
94.69
84.91
72.84
59.96
47.92
38.21
31.81
29.01
29.36
31.92
35.55
39.25
42.22
44.01
44.43
43.47
41.18
37.65
32.99
27.29
20.61
12.98
4.44
-4.83
-14.51
-24.16
-33.28
-41.48
-48.67
-54.97
-60.76
-66.61
-73.27
-81.48
-91.74
-103.64
-115.44
-123.92
-125.07
-115.50
-93.88
-61.79
-23.53
15.21
49.17
74.92
91.33
99.14
99.94
95.35
86.62
74.91
61.59
48.39
37.17
29.45
25.99
26.56
30.12
35.25
40.58
45.08
48.14
49.51
49.09
46.87
42.93
37.47
30.82
23.34
15.34
6.95
-1.88
-11.20
-20.89
-30.61
-39.80
-47.90
-54.52
-59.66
-63.75
-67.62
-72.43
-79.36
-89.06
-101.18
-113.80
-123.54
-126.27
-118.52
-98.81
-68.50
-31.49
6.92
41.64
69.15
87.94
98.20
101.01
97.74
89.72
78.36
65.30
52.48
41.73
34.37
30.84
30.68
32.79
35.96
39.28
42.26
44.75
46.59
47.44
46.72
43.87
38.67
31.42
22.93
14.23
6.15
-1.00
-7.49
-13.97
-21.04
-28.97
-37.42
-45.62
-52.67
-57.98
-61.55
-64.07
-66.76
-71.03
-78.06
-88.24
-100.69
-113.00
-121.46
-121.96
-111.35
-88.80
-56.32
-18.42
19.28
51.84
76.18
91.44
98.45
98.76
93.92
85.24
74.00
61.65
49.89
40.31
33.99
31.14
31.22
33.19
35.98
38.90
41.68
44.35
46.84
48.79
49.45
48.01
43.95
37.36
29.03
20.17
11.89
4.75
-1.39
-7.28
-13.75
-21.31
-29.75
-38.30
-45.94
-51.93
-56.15
-59.26
-62.46
-67.15
-74.38
-84.48
-96.61
-108.55
-116.97
-118.10
-108.89
-88.31
-57.96
-21.82
14.93
47.47
72.61
89.21
97.73
99.41
95.53
87.24
75.76
62.60
49.62
38.58
30.69
26.29
24.89
25.55
27.33
29.63
32.20
34.91
37.46
39.29
39.65
37.89
33.86
27.98
21.05
13.92
7.16
0.82
-5.44
-12.12
-19.55
-27.68
-36.08
-44.09
-51.09
-56.71
-61.00
-64.48
-68.02
-72.69
-79.41
-88.45
-98.88
-108.36
-113.45
-110.52
-97.09
-72.99
-40.69
-4.78
29.52
57.92
78.03
89.53
93.49
91.45
84.78
74.62
62.06
48.45
35.40
24.45
16.72
12.65
11.99
13.94
17.49
21.63
25.55
28.68
30.71
31.42
30.79
28.78
25.47
21.03
15.65
9.59
3.01
-3.99
-11.35
-18.97
-26.61
-33.94
-40.62
-46.49
-51.67
-56.65
-62.16
-69.05
-77.92
-88.70
-100.18
-109.86
-114.31
-110.19
-95.45
-70.35
-37.76
-2.31
30.87
57.79
76.40
86.60
89.53
86.73
79.51
68.94
56.10
42.37
29.47
19.05
12.32
9.69
10.72
14.33
19.16
23.99
27.96
30.69
32.19
32.63
32.20
30.88
28.44
24.56
18.96
11.69
3.11
-6.08
-15.12
-23.37
-30.56
-36.79
-42.49
-48.26
-54.81
-62.84
-72.96
-85.27
-98.91
-111.75
-120.35
-120.92
-110.56
-88.65
-57.32
-21.11
14.57
45.05
67.58
81.62
88.12
88.61
84.45
76.60
65.92
53.56
41.07
30.14
22.19
17.87
17.00
18.58
21.35
24.12
26.10
27.08
27.26
26.99
26.50
25.70
24.19
21.38
16.80
10.30
2.18
-6.89
-16.03
-24.47
-31.75
-37.86
-43.19
-48.43
-54.43
-62.01
-71.78
-83.83
-97.27
-109.90
-118.40
-118.94
-108.57
-86.43
-54.47
-17.09
20.24
52.66
77.17
92.98
100.92
102.38
98.59
90.47
78.90
65.14
50.94
38.22
28.49
22.51
20.10
20.38
22.16
24.32
26.10
27.15
27.50
27.33
26.81
25.86
24.09
20.97
15.98
8.91
0.03
-9.91
-19.95
-29.20
-37.11
-43.59
-49.02
-54.04
-59.47
-66.14
-74.82
-85.80
-98.44
-110.78
-119.55
-120.84
-111.51
-90.52
-59.67
-23.24
13.32
45.13
69.16
84.56
92.05
93.00
88.61
79.85
67.72
53.65
39.57
27.58
19.28
15.29
15.10
17.31
20.27
22.68
24.02
24.50
24.76
25.35
26.25
26.79
25.82
22.23
15.50
6.02
-5.01
-15.92
-25.36
-32.70
-38.28
-43.30
-49.18
-57.27
-68.29
-82.10
-97.41
-111.73
-121.59
-123.17
-113.53
-91.76
-59.71
-21.64
16.89
50.75
76.60
93.27
101.36
102.22
97.19
87.38
73.92
58.31
42.63
29.14
19.67
15.05
14.89
17.77
21.81
25.35
27.50
28.20
28.04
27.71
27.45
26.85
24.91
20.56
13.17
3.00
-8.83
-20.69
-31.12
-39.37
-45.57
-50.76
-56.33
-63.68
-73.77
-86.88
-102.32
-118.22
-131.47
-138.12
-134.44
-118.22
-89.83
-52.52
-11.60
27.26
59.60
83.11
97.62
104.20
104.21
98.78
88.91
75.82
61.28
47.49
36.50
29.62
26.94
27.49
29.66
31.83
33.08
33.28
33.00
32.89
33.23
33.47
32.43
28.72
21.49
10.86
-2.01
-15.34
-27.41
-37.24
-44.93
-51.54
-58.65
-67.85
-80.17
-95.65
-112.95
-129.23
-140.38
-142.05
-130.98
-106.33
-70.38
-28.06
14.52
51.95
80.85
100.27
111.01
114.55
112.13
104.66
93.02
78.66
63.67
50.43
40.88
35.91
35.12
37.04
39.83
41.90
42.44
41.56
39.92
38.26
36.88
35.35
32.61
27.47
19.15
7.76
-5.64
-19.40
-31.88
-42.07
-49.92
-56.25
-62.37
-69.64
-79.11
-91.35
-106.16
-122.22
-136.89
-146.30
-146.25
-133.54
-107.45
-70.38
-27.47
15.06
51.76
79.39
97.28
106.55
108.94
105.93
98.55
87.73
74.85
61.86
50.95
43.92
41.52
43.22
47.43
52.14
55.65
57.01
56.23
54.01
51.18
48.26
45.13
41.10
35.28
27.03
16.35
4.01
-8.69
-20.40
-30.15
-37.78
-43.89
-49.60
-56.22
-64.85
-76.23
-90.43
-106.57
-122.42
-134.47
-138.47
-130.74
-109.64
-76.57
-35.85
6.48
44.55
74.39
94.51
105.47
108.84
106.12
98.41
86.66
72.22
57.07
43.62
34.03
29.52
30.00
34.11
39.84
45.24
48.94
50.55
50.35
49.06
47.21
44.92
41.70
36.71
29.15
18.73
5.98
-7.85
-21.18
-32.68
-41.71
-48.57
-54.27
-60.11
-67.30
-76.69
-88.58
-102.48
-116.82
-128.69
-134.16
-129.32
-111.77
-81.89
-43.23
-1.59
36.85
67.49
88.27
99.56
103.07
100.54
93.23
81.99
67.91
52.76
38.86
28.50
23.10
22.71
26.07
31.17
36.01
39.26
40.53
40.23
39.10
37.74
36.23
34.05
30.35
24.33
15.60
4.50
-7.95
-20.40
-31.58
-40.73
-47.83
-53.55
-59.01
-65.44
-73.94
-85.23
-99.17
-114.40
-128.06
-136.10
-134.35
-120.02
-93.04
-56.50
-15.82
22.97
55.10
78.17
92.18
98.57
99.07
95.01
87.30
76.79
64.74
52.81
42.75
35.86
32.69
32.89
35.49
39.27
43.16
46.35
48.38
49.05
48.33
46.23
42.76
38.02
32.07
25.03
16.94
7.84
-2.23
-12.99
-23.92
-34.34
-43.58
-51.26
-57.50
-62.86
-68.25
-74.69
-83.16
-94.27
-107.67
-121.61
-132.77
-136.75
-129.50
-108.95
-76.23
-35.68
6.52
44.29
73.48
92.66
102.64
105.30
102.56
95.84
86.23
74.89
63.37
53.29
45.94
41.89
40.87
42.00
44.23
46.73
49.04
50.95
52.27
52.72
51.89
49.40
45.09
39.15
32.03
24.24
16.12
7.69
-1.25
-10.92
-21.26
-31.86
-41.98
-50.87
-58.14
-63.89
-68.84
-74.07
-80.84
-90.17
-102.34
-116.34
-129.47
-137.70
-136.56
-122.82
-95.85
-58.31
-15.47
26.41
62.09
88.56
105.34
113.57
114.94
110.92
102.61
91.11
77.85
64.61
53.09
44.51
39.18
36.72
36.32
37.18
38.82
40.97
43.37
45.61
46.98
46.68
44.10
39.10
32.12
24.02
15.70
7.79
0.42
-6.79
-14.38
-22.72
-31.72
-40.85
-49.30
-56.46
-62.14
-66.82
-71.52
-77.51
-85.94
-97.17
-110.25
-122.56
-130.22
-129.02
-115.89
-90.29
-54.74
-14.24
25.22
58.52
82.65
97.01
102.73
101.62
95.25
84.77
71.16
55.66
39.97
26.08
15.74
9.91
8.56
10.69
14.75
19.19
22.83
25.21
26.39
26.74
26.63
26.06
24.66
21.77
16.81
9.53
0.26
-10.15
-20.58
-30.04
-37.98
-44.46
-50.11
-55.85
-62.61
-71.19
-82.00
-94.79
-108.34
-120.18
-126.76
-124.32
-110.16
-83.98
-48.36
-8.24
30.54
63.10
86.62
100.62
106.16
104.85
98.11
86.99
72.60
56.47
40.60
27.09
17.57
12.71
12.03
14.17
17.40
20.23
21.82
22.07
21.42
20.41
19.23
17.55
14.57
9.45
1.69
-8.45
-20.00
-31.57
-41.82
-49.97
-56.04
-60.77
-65.32
-70.85
-78.26
-87.99
-99.82
-112.56
-123.85
-130.24
-127.89
-113.84
-87.38
-50.72
-8.71
32.59
67.83
93.74
109.57
116.43
116.09
110.13
99.60
85.48
69.18
52.71
38.34
27.85
21.97
20.11
20.73
22.06
22.82
22.62
21.84
21.18
21.06
21.22
20.68
18.06
12.26
2.92
-9.19
-22.48
-35.02
-45.32
-52.85
-58.18
-62.70
-68.06
-75.69
-86.37
-99.95
-115.13
-129.24
-138.50
-138.82
-127.00
-102.06
-66.04
-23.57
19.38
57.32
86.64
106.04
116.09
118.20
113.84
104.15
90.32
73.90
56.98
41.86
30.46
23.71
21.32
21.99
23.98
25.84
26.86
27.18
27.38
27.96
28.81
29.05
27.31
22.37
13.76
2.10
-11.09
-23.91
-34.87
-43.36
-49.85
-55.54
-61.91
-70.24
-81.25
-94.89
-110.03
-124.25
-133.95
-135.04
-124.19
-100.19
-64.82
-22.68
20.19
58.11
87.29
106.40
116.05
117.68
112.69
102.23
87.49
70.21
52.73
37.58
26.76
21.03
19.76
21.38
24.00
26.29
27.79
28.78
29.87
31.24
32.31
31.83
28.35
20.89
9.58
-4.34
-18.89
-32.14
-42.87
-50.96
-57.32
-63.43
-70.78
-80.52
-93.03
-107.74
-122.75
-134.84
-139.88
-133.89
-114.62
-82.63
-41.57
2.76
44.21
78.06
101.92
115.57
120.10
116.81
106.93
91.70
72.92
53.12
35.19
21.62
13.73
11.31
12.90
16.43
20.10
22.94
24.85
26.28
27.64
28.76
28.77
26.37
20.54
11.10
-1.04
-14.11
-26.20
-36.02
-43.40
-49.28
-55.33
-63.28
-74.41
-89.12
-106.48
-124.02
-137.82
-143.24
-136.29
-115.08
-80.93
-38.30
6.46
47.10
79.19
100.90
112.68
116.15
113.01
104.51
91.67
75.82
58.94
43.51
31.92
25.67
24.94
28.51
34.29
40.08
44.31
46.36
46.49
45.44
43.87
42.00
39.46
35.51
29.36
20.50
9.04
-4.27
-18.21
-31.43
-42.94
-52.39
-60.13
-67.04
-74.26
-82.91
-93.83
-107.44
-123.22
-139.26
-151.98
-156.73
-149.10
-126.72
-90.67
-45.54
1.84
44.67
78.23
100.80
113.22
117.61
116.04
109.92
100.22
88.05
75.05
63.20
54.32
49.37
48.27
49.98
53.12
56.34
58.79
60.09
60.20
59.17
57.03
53.67
48.97
42.82
35.23
26.34
16.35
5.53
-5.81
-17.33
-28.65
-39.39
-49.26
-58.10
-65.97
-73.21
-80.50
-88.81
-99.23
-112.40
-127.71
-142.72
-153.22
-154.28
-142.02
-115.38
-76.82
-31.73
13.33
52.71
83.03
103.40
114.62
118.13
115.28
107.26
95.43
81.69
68.26
57.24
50.00
46.79
46.87
48.89
51.57
54.05
56.11
57.87
59.41
60.38
60.03
57.44
52.02
43.87
33.93
23.57
14.09
6.10
-0.67
-7.20
-14.63
-23.53
-33.64
-43.90
-52.99
-59.97
-64.81
-68.35
-72.11
-77.72
-86.53
-99.07
-114.59
-130.76
-143.64
-148.48
-141.05
-119.33
-84.60
-41.37
3.93
45.01
77.42
99.43
111.56
115.48
112.92
105.29
93.80
79.97
65.83
53.63
45.19
41.31
41.56
44.55
48.61
52.50
55.67
58.26
60.56
62.60
63.81
63.16
59.67
52.91
43.32
32.17
21.11
11.44
3.72
-2.49
-8.28
-14.88
-22.99
-32.49
-42.47
-51.67
-59.07
-64.39
-68.22
-71.84
-76.84
-84.69
-96.16
-110.85
-126.76
-140.31
-146.94
-142.38
-124.24
-93.15
-52.88
-9.32
31.37
64.56
88.02
101.78
107.14
105.77
99.11
88.43
75.30
61.65
49.64
41.03
36.69
36.37
38.91
42.80
46.75
50.07
52.58
54.39
55.40
55.22
53.17
48.69
41.65
32.64
22.74
13.12
4.50
-3.07
-10.22
-17.82
-26.42
-35.90
-45.49
-54.11
-60.93
-65.75
-69.09
-72.05
-76.01
-82.24
-91.37
-103.00
-115.28
-124.84
-127.45
-119.32
-98.63
-66.54
-27.13
13.79
50.54
79.14
98.05
107.73
109.67
105.44
96.32
83.56
68.62
53.47
40.17
30.39
24.83
23.17
24.37
27.17
30.57
34.05
37.42
40.49
42.89
43.93
42.88
39.26
33.17
25.32
16.82
8.67
1.36
-5.32
-12.11
-19.79
-28.74
-38.68
-48.74
-57.89
-65.39
-71.11
-75.64
-80.04
-85.63
-93.50
-104.07
-116.51
-128.48
-136.26
-135.55
-123.02
-97.59
-61.32
-18.92
23.55
60.58
88.60
106.48
115.03
115.98
111.08
101.79
89.33
75.10
60.72
47.92
38.02
31.62
28.51
27.90
28.73
30.23
31.95
33.72
35.35
36.51
36.55
34.81
30.89
24.94
17.68
10.09
3.00
-3.26
-9.01
-14.93
-21.68
-29.48
-37.98
-46.40
-53.92
-60.07
-65.01
-69.46
-74.61
-81.68
-91.48
-103.79
-116.91
-127.65
-131.84
-125.62
-106.88
-76.40
-37.85
3.15
40.82
70.86
91.37
102.55
105.85
102.92
95.07
83.30
68.73
52.96
37.99
25.78
17.71
14.18
14.54
17.50
21.53
25.38
28.35
30.26
31.26
31.52
30.97
29.25
25.75
19.91
11.55
1.02
-10.70
-22.39
-32.82
-41.26
-47.69
-52.77
-57.53
-63.12
-70.45
-80.08
-91.90
-104.87
-116.74
-124.16
-123.40
-111.57
-87.91
-54.48
-15.75
22.75
56.12
81.29
97.37
104.98
105.33
99.60
88.79
74.14
57.44
41.01
27.20
17.67
12.91
12.17
13.82
16.19
18.10
19.19
19.82
20.59
21.81
23.08
23.34
21.30
15.96
7.18
-4.22
-16.66
-28.48
-38.48
-46.37
-52.74
-58.86
-66.15
-75.86
-88.58
-103.91
-120.03
-133.69
-140.66
-136.95
-120.20
-90.86
-52.38
-10.25
29.68
62.89
87.13
102.27
109.36
109.67
104.16
93.62
79.19
62.72
46.72
33.66
25.22
21.73
22.16
24.62
27.17
28.54
28.42
27.34
26.12
25.21
24.40
22.75
19.06
12.38
2.59
-9.56
-22.57
-34.85
-45.21
-53.25
-59.45
-64.97
-71.21
-79.48
-90.67
-104.80
-120.72
-135.79
-146.07
-147.17
-135.61
-110.31
-73.36
-29.67
14.45
53.27
83.09
102.72
112.94
115.38
111.51
102.47
89.37
73.75
57.81
44.04
34.47
29.99
30.07
33.07
36.92
39.94
41.36
41.35
40.64
39.94
39.40
38.40
35.76
30.26
21.24
8.99
-5.20
-19.58
-32.56
-43.24
-51.77
-59.10
-66.61
-75.68
-87.36
-102.02
-119.04
-136.40
-150.57
-157.05
-151.62
-131.91
-98.66
-55.86
-9.69
33.45
68.78
94.09
109.57
116.72
117.24
112.37
103.04
90.31
75.82
61.72
50.18
42.74
39.86
40.78
43.93
47.49
50.06
51.03
50.56
49.25
47.72
46.06
43.71
39.69
33.04
23.32
11.02
-2.63
-16.00
-27.72
-37.13
-44.43
-50.57
-56.77
-64.19
-73.74
-85.94
-100.71
-116.99
-132.34
-142.99
-144.56
-133.50
-108.60
-71.81
-27.99
16.56
55.95
86.28
106.17
116.29
118.30
113.95
104.77
92.13
77.62
63.20
50.93
42.44
38.53
38.93
42.48
47.51
52.43
56.04
57.76
57.52
55.60
52.25
47.66
41.81
34.52
25.63
15.12
3.21
-9.53
-22.28
-34.15
-44.41
-52.73
-59.30
-64.75
-69.99
-76.02
-83.87
-94.31
-107.50
-122.41
-136.40
-145.28
-144.43
-130.38
-102.43
-63.34
-18.70
24.89
61.87
89.08
105.99
113.77
114.10
108.39
97.77
83.49
67.43
52.07
39.93
32.84
31.34
34.52
40.44
46.85
51.82
54.35
54.31
52.36
49.25
45.48
41.07
35.56
28.33
18.92
7.41
-5.57
-18.93
-31.49
-42.31
-51.01
-57.83
-63.55
-69.19
-75.83
-84.41
-95.51
-108.95
-123.32
-135.79
-142.34
-138.89
-122.71
-93.71
-54.94
-11.76
29.82
64.89
90.71
106.77
114.08
114.16
108.48
98.49
85.82
72.45
60.52
51.81
47.28
46.77
49.25
53.28
57.57
61.27
64.04
65.80
66.38
65.43
62.44
57.06
49.39
40.06
30.08
20.36
11.39
2.99
-5.49
-14.75
-25.10
-36.18
-47.08
-56.74
-64.44
-70.15
-74.61
-79.18
-85.44
-94.86
-108.09
-124.41
-141.22
-154.23
-158.32
-149.23
-125.23
-88.03
-42.61
4.42
46.84
80.47
103.81
117.42
122.81
121.44
114.51
103.16
89.03
74.32
61.43
52.25
47.62
47.08
49.26
52.52
55.60
58.01
59.93
61.84
63.89
65.63
65.95
63.56
57.58
48.05
36.05
23.38
11.81
2.41
-4.85
-10.97
-17.40
-25.25
-34.78
-45.20
-55.13
-63.19
-68.73
-72.06
-74.38
-77.32
-82.50
-91.15
-103.67
-119.26
-135.53
-148.48
-153.22
-145.38
-122.88
-87.02
-42.46
4.16
46.35
79.64
102.37
115.22
119.91
118.16
111.16
99.97
85.98
71.21
58.05
48.54
43.69
43.23
45.77
49.51
52.93
55.33
56.76
57.83
59.01
60.26
60.86
59.63
55.48
47.96
37.61
25.82
14.38
4.71
-2.60
-8.02
-12.75
-18.18
-25.20
-33.82
-43.24
-52.19
-59.52
-64.72
-68.09
-70.61
-73.61
-78.43
-86.07
-96.96
-110.54
-124.83
-136.35
-140.65
-133.61
-112.94
-79.48
-37.28
7.47
48.42
80.84
102.60
114.05
116.83
112.91
103.86
90.92
75.44
59.13
44.02
31.96
24.13
20.68
20.86
23.49
27.40
31.79
36.20
40.31
43.67
45.59
45.34
42.42
36.84
29.20
20.46
11.53
2.96
-5.25
-13.51
-22.29
-31.74
-41.52
-50.93
-59.19
-65.74
-70.59
-74.28
-77.85
-82.60
-89.70
-99.62
-111.53
-122.89
-129.75
-127.77
-113.74
-87.05
-50.31
-8.69
31.67
65.55
89.95
104.31
109.84
108.40
101.67
90.93
77.35
62.28
47.45
34.64
25.25
19.93
18.46
19.95
23.18
27.02
30.56
33.26
34.74
34.77
33.20
29.98
25.16
18.96
11.68
3.58
-5.16
-14.41
-24.05
-33.83
-43.38
-52.25
-60.07
-66.73
-72.48
-77.92
-83.93
-91.43
-101.02
-112.47
-124.24
-133.37
-135.94
-128.22
-108.14
-76.36
-36.46
5.98
45.14
76.58
98.22
110.23
114.12
111.64
104.22
92.91
78.82
63.43
48.57
36.05
27.13
22.21
20.84
22.03
24.60
27.50
29.96
31.55
32.00
31.26
29.30
26.12
21.68
15.89
8.67
-0.00
-9.99
-20.86
-31.90
-42.28
-51.30
-58.62
-64.45
-69.50
-74.79
-81.47
-90.53
-102.41
-116.57
-131.04
-142.31
-145.98
-138.00
-116.27
-81.86
-38.98
6.15
47.22
79.73
101.85
114.05
118.05
115.62
108.11
96.51
81.97
66.16
51.17
39.01
31.01
27.49
27.71
30.22
33.39
35.96
37.25
37.23
36.33
34.93
33.17
30.63
26.60
20.36
11.52
0.43
-11.95
-24.22
-35.11
-43.88
-50.52
-55.71
-60.59
-66.37
-74.08
-84.40
-97.30
-111.65
-124.98
-133.56
-133.27
-120.90
-95.62
-59.65
-17.85
23.75
59.75
86.83
103.98
111.97
112.26
106.21
94.98
79.84
62.59
45.57
31.21
21.25
16.27
15.53
17.45
20.25
22.67
24.35
25.64
27.11
29.00
30.78
31.24
28.88
22.68
12.64
-0.08
-13.50
-25.61
-35.14
-42.03
-47.27
-52.57
-59.58
-69.47
-82.57
-98.07
-113.92
-126.77
-132.53
-127.37
-109.14
-78.49
-39.00
3.68
43.59
76.10
98.91
111.81
115.85
112.37
102.59
87.79
69.74
50.85
33.78
20.66
12.47
8.78
8.16
8.91
9.82
10.51
11.31
12.64
14.46
15.97
15.80
12.60
5.71
-4.42
-16.34
-28.15
-38.22
-45.87
-51.57
-56.67
-62.99
-72.17
-85.08
-101.25
-118.50
-133.00
-139.93
-134.93
-115.69
-83.15
-41.48
3.06
44.15
77.26
100.41
113.94
119.37
118.22
111.54
100.14
85.18
68.49
52.51
39.60
31.32
27.98
28.61
31.42
34.53
36.63
37.20
36.57
35.38
34.10
32.64
30.25
25.83
18.39
7.65
-5.72
-20.24
-34.12
-45.94
-55.14
-62.15
-68.15
-74.59
-82.75
-93.46
-106.93
-122.46
-138.12
-150.50
-155.21
-148.00
-126.38
-90.97
-45.87
2.49
47.26
83.27
108.13
122.12
127.06
125.09
117.85
106.56
92.42
77.02
62.32
50.25
42.18
38.56
38.89
41.95
46.27
50.47
53.57
55.01
54.66
52.65
49.23
44.64
38.97
32.14
23.98
14.35
3.32
-8.68
-20.99
-32.75
-43.30
-52.28
-59.83
-66.50
-73.12
-80.69
-90.24
-102.49
-117.36
-133.38
-147.36
-154.73
-150.83
-132.66
-100.29
-57.34
-10.03
34.80
71.68
97.85
113.22
119.39
118.50
112.34
102.31
89.77
76.34
63.90
54.17
48.14
45.89
46.66
49.30
52.76
56.33
59.64
62.39
64.12
64.15
61.84
56.85
49.38
40.19
30.29
20.52
11.21
2.15
-7.13
-17.00
-27.42
-37.87
-47.60
-55.98
-62.80
-68.42
-73.69
-79.77
-87.93
-99.06
-113.14
-128.57
-141.95
-148.51
-143.59
-124.37
-91.31
-48.44
-2.14
40.85
75.45
99.31
112.67
117.21
114.97
107.60
96.48
83.03
68.99
56.35
46.79
41.23
39.61
41.07
44.36
48.32
52.13
55.31
57.52
58.35
57.30
53.97
48.22
40.40
31.21
21.54
12.05
3.01
-5.80
-14.82
-24.36
-34.35
-44.29
-53.36
-60.85
-66.50
-70.63
-74.20
-78.61
-85.33
-95.37
-108.55
-122.97
-134.85
-139.37
-132.10
-110.81
-76.67
-34.16
10.19
49.99
80.80
100.92
111.08
113.14
109.01
100.11
87.51
72.50
56.81
42.57
31.70
25.38
23.71
25.74
29.94
34.61
38.42
40.62
41.00
39.77
37.27
33.79
29.39
23.93
17.14
8.81
-1.04
-12.03
-23.47
-34.49
-44.37
-52.64
-59.29
-64.70
-69.55
-74.66
-80.94
-89.20
-99.77
-111.93
-123.51
-130.88
-129.73
-116.62
-90.42
-53.23
-9.95
33.14
70.32
97.93
114.88
122.04
121.23
114.28
102.73
87.89
71.32
54.83
40.38
29.59
23.36
21.67
23.66
27.96
33.10
37.83
41.31
43.15
43.23
41.59
38.30
33.45
27.18
19.67
11.14
1.77
-8.24
-18.71
-29.33
-39.67
-49.20
-57.47
-64.26
-69.82
-74.86
-80.48
-87.94
-98.21
-111.39
-125.99
-138.77
-145.15
-140.56
-122.15
-90.21
-48.57
-3.42
38.60
72.43
95.73
108.68
112.94
110.40
102.50
90.31
75.00
58.35
42.63
30.14
22.46
20.02
21.99
26.65
32.05
36.59
39.42
40.51
40.39
39.64
38.52
36.73
33.49
27.91
19.44
8.24
-4.76
-18.09
-30.29
-40.35
-48.12
-54.25
-59.91
-66.43
-74.93
-86.11
-99.94
-115.29
-129.71
-139.42
-140.16
-128.50
-103.33
-66.67
-23.40
20.20
58.35
87.31
105.83
114.55
114.95
108.49
96.37
79.98
61.30
42.98
27.73
17.49
12.86
12.98
16.00
19.93
23.44
26.07
28.12
30.13
32.24
33.86
33.84
30.86
24.08
13.64
0.69
-12.93
-25.41
-35.49
-43.04
-48.86
-54.49
-61.63
-71.61
-84.96
-100.83
-116.80
-128.98
-132.86
-124.66
-102.83
-69.02
-27.75
14.84
52.96
82.73
102.69
113.36
116.06
112.10
102.40
87.99
70.45
52.19
35.99
24.23
18.11
17.29
20.12
24.39
28.22
30.61
31.60
31.85
32.03
32.18
31.56
28.92
23.14
13.88
1.81
-11.52
-24.32
-35.20
-43.67
-50.19
-55.89
-62.11
-70.07
-80.65
-94.04
-109.34
-124.24
-135.01
-137.29
-127.38
-103.89
-68.56
-26.09
17.31
55.83
85.66
105.53
116.15
119.08
115.75
107.18
94.24
78.28
61.29
45.72
33.78
26.78
24.68
26.26
29.73
33.34
36.02
37.50
38.10
38.32
38.28
37.57
35.29
30.46
22.48
11.48
-1.53
-15.08
-27.65
-38.25
-46.62
-53.36
-59.46
-66.07
-74.22
-84.59
-97.36
-111.72
-125.52
-135.20
-136.51
-125.84
-101.78
-66.10
-23.60
19.39
56.97
85.32
103.34
112.05
113.38
109.08
100.26
87.76
72.68
56.80
42.32
31.35
25.17
23.85
26.26
30.59
35.03
38.38
40.24
40.92
40.92
40.51
39.41
36.82
31.84
23.90
13.24
0.88
-11.65
-22.86
-31.82
-38.48
-43.51
-48.01
-53.17
-59.99
-69.15
-80.88
-94.63
-108.60
-119.72
-124.03
-117.92
-99.49
-69.65
-32.18
7.35
43.34
71.73
90.75
100.65
102.76
98.50
89.04
75.43
59.10
42.11
26.91
15.76
9.98
9.48
12.88
18.11
23.17
26.90
29.12
30.41
31.48
32.57
33.17
32.15
28.37
21.23
11.05
-0.94
-13.11
-23.98
-32.75
-39.50
-44.98
-50.31
-56.67
-64.92
-75.44
-87.78
-100.40
-110.59
-114.96
-110.31
-94.83
-69.03
-35.87
0.04
33.74
61.44
81.15
92.65
96.80
94.70
87.38
75.81
61.31
45.69
31.21
19.93
13.23
11.34
13.34
17.63
22.43
26.44
29.02
30.23
30.43
29.96
28.83
26.63
22.74
16.64
8.26
-1.89
-12.81
-23.29
-32.37
-39.61
-45.16
-49.63
-53.87
-58.73
-64.97
-73.10
-83.06
-93.84
-103.15
-107.77
-104.33
-90.63
-66.70
-35.20
-0.62
32.07
58.95
77.95
88.82
92.47
90.16
83.07
72.32
59.21
45.40
32.74
22.86
16.77
14.63
15.83
19.29
23.82
28.39
32.28
34.98
36.17
35.65
33.36
29.42
24.17
18.05
11.45
4.54
-2.69
-10.35
-18.40
-26.56
-34.32
-41.14
-46.67
-50.93
-54.39
-57.80
-62.16
-68.33
-76.76
-86.91
-96.98
-103.91
-104.13
-94.79
-74.94
-46.24
-12.63
20.88
49.78
71.21
84.36
89.96
89.47
84.30
75.57
64.31
51.69
39.19
28.33
20.35
15.82
14.50
15.59
18.07
21.08
24.04
26.63
28.59
29.57
29.19
27.20
23.61
18.76
13.18
7.35
1.51
-4.36
-10.39
-16.67
-23.09
-29.33
-35.05
-40.04
-44.36
-48.36
-52.57
-57.64
-64.13
-72.29
-81.68
-90.84
-97.30
-98.01
-90.34
-73.16
-47.57
-16.85
14.55
42.34
63.58
77.17
83.54
83.92
79.57
71.46
60.44
47.57
34.23
22.06
12.60
6.86
5.00
6.42
9.88
14.04
17.75
20.36
21.80
22.28
22.13
21.42
19.97
17.32
13.07
7.06
-0.40
-8.67
-16.89
-24.22
-30.17
-34.66
-38.08
-41.11
-44.60
-49.27
-55.63
-63.65
-72.58
-80.79
-85.84
-85.04
-76.29
-58.96
-34.41
-5.77
22.88
47.77
66.35
77.72
82.31
81.20
75.59
66.44
54.70
41.51
28.36
16.88
8.51
3.97
3.12
4.91
7.97
10.97
13.16
14.41
15.06
15.53
15.93
15.93
14.86
11.99
6.87
-0.36
-9.04
-18.13
-26.54
-33.51
-38.85
-42.96
-46.67
-50.97
-56.73
-64.38
-73.72
-83.69
-92.25
-96.68
-94.18
-82.87
-62.62
-35.41
-4.87
24.78
49.90
68.34
79.48
83.83
82.39
76.19
66.25
53.78
40.25
27.39
16.79
9.50
5.81
5.23
6.72
9.13
11.52
13.39
14.72
15.71
16.54
17.11
16.92
15.22
11.37
5.13
-3.10
-12.34
-21.35
-29.13
-35.22
-39.89
-43.93
-48.37
-54.09
-61.64
-71.02
-81.61
-91.96
-99.81
-102.43
-97.28
-83.01
-60.15
-31.23
-0.15
29.03
53.20
70.79
81.62
86.33
85.77
80.67
71.81
60.28
47.60
35.52
25.72
19.29
16.41
16.48
18.28
20.57
22.40
23.40
23.71
23.70
23.59
23.20
21.92
18.98
13.82
6.45
-2.56
-12.28
-21.70
-30.12
-37.27
-43.35
-48.96
-54.92
-62.10
-71.18
-82.28
-94.51
-105.75
-112.87
-112.49
-102.13
-81.25
-51.74
-17.52
16.66
46.54
69.37
84.26
91.64
92.65
88.51
80.29
69.11
56.25
43.28
31.79
22.99
17.42
14.83
14.36
14.99
15.89
16.76
17.68
18.89
20.40
21.79
22.22
20.70
16.55
9.71
0.88
-8.75
-17.83
-25.42
-31.26
-35.84
-40.16
-45.39
-52.53
-62.03
-73.67
-86.25
-97.56
-104.57
-104.11
-93.84
-73.32
-44.49
-11.31
21.40
49.42
70.11
82.71
87.83
86.70
80.58
70.61
58.08
44.55
31.90
21.79
15.29
12.49
12.63
14.49
16.91
19.19
21.20
23.07
24.88
26.33
26.64
24.82
20.14
12.49
2.60
-8.21
-18.48
-27.12
-33.88
-39.35
-44.82
-51.82
-61.50
-74.17
-88.70
-102.47
-111.80
-112.89
-103.08
-81.90
-51.48
-16.03
19.40
50.35
73.91
89.11
96.36
96.82
91.70
82.19
69.51
55.22
41.20
29.38
21.11
16.79
15.77
16.69
18.06
18.93
19.13
19.07
19.26
19.80
20.16
19.25
15.97
9.72
0.75
-9.82
-20.46
-29.74
-36.92
-42.18
-46.48
-51.27
-57.94
-67.48
-80.02
-94.56
-108.70
-118.87
-121.14
-112.36
-91.45
-60.04
-22.33
16.26
50.64
77.41
95.36
104.97
107.57
104.45
96.61
84.92
70.56
55.28
41.20
30.22
23.47
20.87
21.28
23.01
24.58
25.26
25.16
24.84
24.83
25.08
24.88
23.10
18.74
11.42
1.58
-9.59
-20.67
-30.42
-38.27
-44.41
-49.73
-55.43
-62.75
-72.64
-85.38
-100.29
-115.36
-127.38
-132.35
-126.67
-108.46
-78.48
-40.28
0.79
39.16
70.55
92.84
105.96
111.11
109.89
103.66
93.61
80.96
67.28
54.30
43.66
36.45
32.93
32.61
34.44
37.28
40.06
42.06
42.88
42.43
40.80
38.14
34.52
29.83
23.79
16.05
6.55
-4.42
-16.07
-27.38
-37.46
-45.85
-52.71
-58.68
-64.63
-71.42
-79.80
-90.25
-102.75
-116.35
-128.71
-136.30
-135.13
-122.11
-96.49
-60.52
-19.04
22.02
57.44
84.01
100.84
108.80
109.53
104.61
95.38
83.11
69.32
55.85
44.59
37.03
33.85
34.77
38.74
44.26
49.84
54.27
56.77
56.96
54.80
50.48
44.37
36.93
28.73
20.26
11.88
3.72
-4.31
-12.33
-20.40
-28.32
-35.78
-42.43
-48.18
-53.27
-58.33
-64.26
-72.00
-82.24
-94.92
-108.70
-120.73
-127.00
-123.36
-107.16
-78.40
-40.26
1.81
41.73
74.59
97.83
111.22
116.09
114.21
107.13
96.03
82.13
66.93
52.33
40.18
31.88
27.85
27.56
29.71
32.76
35.45
37.07
37.56
37.27
36.60
35.71
34.28
31.66
27.08
20.08
10.75
-0.22
-11.65
-22.30
-31.27
-38.31
-43.88
-48.98
-54.81
-62.46
-72.58
-85.19
-99.39
-113.13
-123.32
-126.30
-118.95
-99.85
-70.10
-33.32
5.41
40.99
69.70
89.82
101.38
105.34
102.83
94.91
82.66
67.64
51.85
37.53
26.48
19.56
16.51
16.22
17.28
18.60
19.75
20.89
22.37
24.15
25.57
25.45
22.53
16.18
6.71
-4.63
-16.19
-26.54
-35.08
-42.07
-48.45
-55.40
-63.97
-74.77
-87.71
-101.65
-114.23
-122.09
-121.51
-109.74
-86.17
-52.96
-14.56
23.54
56.51
81.32
97.06
104.34
104.43
98.55
87.83
73.64
57.75
42.31
29.31
20.00
14.59
12.35
12.12
12.87
14.12
15.81
18.06
20.68
23.00
23.88
22.16
17.16
9.05
-1.20
-12.08
-22.20
-30.78
-37.97
-44.75
-52.58
-62.82
-76.19
-92.16
-108.71
-122.32
-128.69
-123.93
-106.09
-76.05
-37.70
3.25
40.98
71.24
92.20
104.10
108.32
106.28
99.07
87.55
72.91
56.99
41.97
29.83
21.66
17.32
15.73
15.45
15.38
15.25
15.45
16.59
18.85
21.56
23.27
22.26
17.39
8.59
-2.99
-15.39
-26.69
-35.72
-42.45
-47.96
-53.88
-61.92
-73.19
-87.80
-104.51
-120.48
-131.67
-133.69
-123.21
-99.37
-64.41
-23.33
17.75
53.38
80.24
97.54
106.25
108.07
104.49
96.56
85.24
71.85
58.13
45.93
36.55
30.41
26.98
25.18
24.04
23.12
22.55
22.75
23.89
25.57
26.68
25.84
21.91
14.59
4.54
-6.89
-18.15
-28.12
-36.42
-43.53
-50.54
-58.85
-69.70
-83.67
-100.14
-116.79
-129.77
-134.64
-127.77
-107.82
-76.47
-37.89
2.59
40.15
71.57
95.33
111.09
118.92
119.07
112.09
99.29
82.84
65.44
49.64
37.19
28.67
23.68
21.16
20.02
19.53
19.48
20.03
21.36
23.20
24.75
24.77
22.01
15.77
6.27
-5.32
-17.35
-28.20
-36.98
-43.71
-49.31
-55.20
-62.83
-73.30
-86.83
-102.38
-117.53
-128.51
-131.08
-121.73
-99.12
-64.90
-23.52
19.02
56.85
85.85
104.30
112.52
112.05
104.73
92.32
76.54
59.26
42.49
28.10
17.36
10.63
7.40
6.65
7.39
8.96
11.11
13.66
16.19
17.86
17.59
14.46
8.18
-0.70
-10.98
-21.18
-30.23
-37.75
-44.27
-50.95
-59.20
-70.25
-84.47
-100.85
-116.65
-127.69
-129.35
-118.17
-93.29
-57.24
-15.25
26.34
62.04
88.58
105.15
112.64
112.47
105.92
94.03
78.11
60.18
42.89
28.91
19.96
16.31
16.73
19.20
21.77
23.39
24.02
24.35
24.99
25.91
26.20
24.40
19.23
10.22
-1.93
-15.54
-28.64
-39.65
-48.02
-54.38
-60.15
-67.10
-76.73
-89.81
-105.96
-123.29
-138.40
-146.84
-144.26
-127.91
-97.89
-57.48
-12.34
31.20
68.00
95.29
112.60
121.00
121.88
116.45
105.72
91.01
74.36
58.33
45.39
37.13
33.77
34.17
36.46
38.79
40.06
40.10
39.44
38.76
38.28
37.48
35.20
30.13
21.48
9.46
-4.67
-19.03
-31.88
-42.22
-50.18
-56.86
-63.81
-72.59
-84.24
-98.98
-115.75
-132.04
-143.98
-147.13
-137.79
-114.49
-78.90
-35.61
9.23
49.76
82.00
104.37
117.27
122.01
119.89
111.97
99.32
83.53
66.85
51.86
40.80
34.85
33.85
36.38
40.36
43.84
45.63
45.54
44.18
42.39
40.73
38.95
36.14
31.12
23.07
12.04
-0.95
-14.24
-26.14
-35.59
-42.48
-47.65
-52.57
-58.81
-67.68
-79.83
-95.04
-111.76
-127.08
-136.98
-137.25
-124.81
-99.06
-62.42
-19.82
22.73
59.90
88.29
106.70
115.62
116.23
109.83
97.71
81.42
63.11
45.42
30.94
21.46
17.47
18.03
21.33
25.38
28.78
31.08
32.60
33.91
35.23
36.05
35.21
31.41
23.87
12.89
-0.20
-13.43
-25.01
-33.96
-40.49
-45.77
-51.43
-58.99
-69.48
-83.01
-98.61
-114.05
-125.85
-129.95
-122.79
-102.67
-70.70
-30.83
11.25
49.85
80.75
102.07
113.88
117.37
113.97
104.86
91.18
74.42
56.66
40.36
27.80
20.42
18.46
20.91
26.03
31.91
37.02
40.43
41.95
41.80
40.37
37.93
34.54
29.98
23.94
16.11
6.44
-4.77
-16.89
-29.03
-40.39
-50.44
-59.03
-66.44
-73.26
-80.30
-88.43
-98.46
-110.62
-124.04
-136.29
-143.56
-141.50
-126.83
-98.74
-59.70
-14.88
29.34
67.38
95.79
113.64
121.86
122.23
116.47
106.03
92.23
76.65
61.18
47.79
38.03
32.62
31.36
33.26
36.97
41.12
44.62
46.78
47.28
46.09
43.31
39.07
33.52
26.74
18.83
9.90
0.10
-10.32
-21.06
-31.65
-41.65
-50.59
-58.17
-64.35
-69.47
-74.24
-79.70
-86.95
-96.76
-108.93
-121.72
-131.78
-134.70
-126.42
-104.84
-70.98
-28.98
15.00
54.78
85.88
106.44
116.89
118.95
114.56
105.28
92.37
77.18
61.39
46.92
35.51
28.27
25.42
26.37
29.89
34.64
39.35
43.14
45.44
46.05
44.98
42.35
38.28
32.83
26.03
17.90
8.58
-1.67
-12.43
-23.16
-33.32
-42.44
-50.31
-56.97
-62.76
-68.34
-74.59
-82.43
-92.52
-104.70
-117.46
-127.75
-131.49
-124.77
-105.45
-74.19
-34.72
7.32
46.02
76.95
98.00
109.21
111.91
107.75
98.12
84.26
67.57
49.94
33.62
20.71
12.61
9.59
10.77
14.55
19.15
23.24
26.27
28.33
29.80
30.94
31.54
30.88
28.05
22.30
13.49
2.27
-10.07
-21.97
-32.18
-40.13
-46.15
-51.18
-56.49
-63.24
-72.24
-83.66
-96.78
-109.70
-119.39
-122.16
-114.72
-95.52
-65.64
-28.81
9.61
44.31
71.52
89.62
98.85
100.40
95.54
85.35
71.00
54.16
37.10
22.26
11.54
5.64
3.94
4.93
6.93
8.83
10.39
12.04
14.36
17.46
20.63
22.47
21.45
16.55
7.79
-3.67
-15.93
-27.14
-36.13
-42.78
-48.03
-53.39
-60.46
-70.43
-83.58
-98.97
-114.18
-125.53
-128.77
-120.46
-99.22
-66.69
-27.20
13.37
49.50
77.42
95.78
105.08
106.72
102.10
92.25
78.25
61.61
44.49
29.26
17.91
11.30
9.04
9.76
11.80
13.87
15.44
16.64
17.96
19.64
21.35
22.13
20.62
15.71
7.03
-4.74
-17.95
-30.59
-41.03
-48.63
-53.97
-58.57
-64.27
-72.71
-84.70
-99.96
-116.84
-132.23
-142.04
-141.95
-128.98
-102.60
-65.36
-22.35
20.35
57.48
85.88
104.68
114.62
117.00
112.90
103.25
89.18
72.47
55.53
40.88
30.35
24.53
22.68
23.20
24.36
25.08
25.14
25.07
25.51
26.63
27.78
27.61
24.65
17.98
7.74
-4.86
-17.95
-29.69
-39.02
-45.97
-51.58
-57.51
-65.46
-76.60
-91.11
-107.75
-123.71
-134.90
-136.88
-126.26
-101.99
-66.15
-23.55
19.69
57.94
87.52
107.13
117.37
119.66
115.43
105.79
91.88
75.29
58.20
43.03
31.78
25.45
23.69
25.16
28.00
30.67
32.32
32.91
32.98
33.03
33.12
32.59
30.30
25.08
16.38
4.69
-8.57
-21.50
-32.52
-40.96
-47.26
-52.75
-59.06
-67.59
-79.13
-93.62
-109.88
-125.44
-136.59
-139.08
-129.39
-106.11
-70.96
-28.52
14.95
53.53
83.22
102.58
112.21
113.69
108.57
98.02
83.19
65.72
47.92
32.42
21.41
15.98
15.75
19.09
23.82
28.00
30.57
31.48
31.35
30.94
30.53
29.60
27.09
21.81
13.21
1.72
-11.29
-24.03
-34.96
-43.43
-49.83
-55.33
-61.48
-69.65
-80.74
-94.85
-110.88
-126.32
-137.33
-139.54
-129.35
-105.43
-69.59
-26.55
17.48
56.69
87.14
107.39
117.91
120.08
115.26
104.56
89.24
71.03
52.40
36.09
24.40
18.47
17.99
21.39
26.52
31.39
34.80
36.44
36.80
36.52
36.03
35.12
33.02
28.71
21.40
10.97
-1.82
-15.57
-28.71
-40.03
-49.10
-56.35
-62.78
-69.65
-78.13
-89.13
-102.97
-119.04
-135.28
-148.12
-153.03
-145.81
-124.26
-89.38
-45.39
1.35
44.41
79.08
103.29
117.29
122.68
121.21
114.28
103.06
88.86
73.47
59.02
47.49
40.24
37.53
38.61
42.04
46.25
49.92
52.24
52.95
52.15
50.10
47.04
43.03
37.94
31.52
23.54
13.97
3.06
-8.59
-20.15
-30.80
-39.98
-47.60
-54.03
-60.02
-66.53
-74.55
-85.02
-98.46
-114.40
-130.85
-144.17
-149.68
-143.11
-122.30
-88.39
-45.81
-0.92
39.99
72.56
95.08
108.02
113.00
111.61
105.07
94.48
81.27
67.35
54.88
45.59
40.33
38.81
39.96
42.46
45.34
48.19
51.08
54.12
57.06
59.17
59.38
56.82
51.23
43.22
34.03
25.01
16.96
9.82
2.75
-5.30
-15.03
-26.27
-38.09
-49.16
-58.43
-65.55
-71.06
-76.17
-82.35
-90.95
-102.69
-117.17
-132.44
-144.95
-150.09
-143.55
-122.92
-88.93
-45.66
0.58
43.22
77.38
100.82
113.81
118.06
115.53
107.81
96.17
81.98
67.00
53.29
42.68
36.29
34.19
35.56
39.16
43.75
48.42
52.60
55.86
57.76
57.78
55.49
50.72
43.76
35.24
26.01
16.71
7.61
-1.43
-10.71
-20.45
-30.53
-40.52
-49.73
-57.64
-64.08
-69.35
-74.24
-79.91
-87.54
-97.88
-110.62
-123.83
-133.91
-136.33
-127.11
-104.46
-69.84
-27.78
15.46
53.91
83.59
103.08
113.04
115.15
111.08
102.16
89.55
74.68
59.43
45.82
35.55
29.49
27.54
28.82
32.08
36.14
40.16
43.62
46.13
47.26
46.49
43.41
37.91
30.35
21.56
12.43
3.62
-4.73
-12.96
-21.63
-31.08
-41.19
-51.32
-60.56
-68.20
-73.98
-78.29
-82.13
-86.84
-93.78
-103.74
-116.35
-129.53
-139.55
-141.76
-132.13
-108.84
-73.36
-30.31
13.94
53.27
83.50
103.11
112.81
114.45
109.94
100.82
88.37
73.98
59.37
46.39
36.59
30.69
28.58
29.42
32.11
35.64
39.37
42.88
45.84
47.83
48.32
46.79
42.99
37.09
29.70
21.59
13.34
5.16
-3.22
-12.20
-22.06
-32.59
-43.17
-53.01
-61.53
-68.62
-74.78
-80.97
-88.31
-97.90
-110.25
-124.77
-139.37
-150.33
-153.13
-143.80
-120.55
-84.84
-41.23
3.99
44.67
76.62
98.16
109.86
113.46
110.76
103.31
92.35
79.23
65.59
53.18
43.45
37.16
34.28
34.17
35.97
38.85
42.23
45.63
48.55
50.40
50.51
48.45
44.10
37.87
30.45
22.59
14.76
6.99
-1.00
-9.59
-18.99
-28.99
-39.03
-48.38
-56.53
-63.35
-69.24
-75.07
-82.01
-91.15
-103.04
-117.02
-130.88
-140.87
-142.50
-132.05
-108.09
-72.39
-29.60
14.03
52.68
82.42
101.87
111.70
113.62
109.44
100.59
88.27
73.76
58.67
44.77
33.72
26.56
23.48
23.83
26.46
30.07
33.59
36.32
37.99
38.55
38.03
36.40
33.63
29.60
24.16
17.25
8.93
-0.63
-10.95
-21.42
-31.37
-40.30
-48.04
-54.74
-60.85
-67.07
-74.19
-83.02
-94.10
-107.13
-120.51
-131.05
-134.59
-127.18
-106.75
-74.26
-33.80
8.60
46.87
76.65
96.16
105.88
107.52
102.87
93.36
80.09
64.34
47.87
32.78
21.04
13.91
11.59
13.21
17.27
22.10
26.36
29.33
30.90
31.34
31.00
29.95
27.85
24.03
17.82
8.89
-2.43
-15.19
-28.06
-39.77
-49.55
-57.31
-63.64
-69.51
-75.97
-83.94
-94.04
-106.36
-120.08
-133.03
-141.77
-142.15
-130.70
-106.08
-70.03
-27.13
16.52
55.19
85.19
105.26
116.11
119.25
116.07
107.58
94.75
79.06
62.67
48.05
37.31
31.45
30.18
32.01
34.99
37.45
38.49
38.13
36.99
35.81
34.91
33.92
31.85
27.55
20.22
9.82
-2.84
-16.32
-29.16
-40.36
-49.68
-57.66
-65.30
-73.74
-84.00
-96.71
-111.88
-128.48
-144.11
-155.01
-156.82
-145.90
-120.95
-83.79
-39.28
6.18
46.59
77.99
99.02
110.46
114.07
111.53
104.06
92.60
78.36
63.08
48.95
38.12
31.98
30.76
33.52
38.46
43.61
47.50
49.48
49.75
48.86
47.32
45.12
41.79
36.62
29.05
18.98
6.95
-6.10
-19.04
-30.90
-41.13
-49.70
-57.15
-64.34
-72.32
-82.07
-94.27
-108.94
-124.95
-139.67
-149.17
-149.09
-136.04
-109.13
-70.73
-25.96
18.77
57.77
87.51
106.98
117.03
119.17
114.82
105.06
91.06
74.55
57.93
43.77
34.03
29.48
29.46
32.25
35.86
38.77
40.36
40.92
41.18
41.70
42.38
42.30
40.10
34.55
25.22
12.70
-1.45
-15.30
-27.32
-36.88
-44.39
-51.13
-58.73
-68.65
-81.76
-97.97
-115.95
-132.87
-144.67
-146.93
-136.18
-111.37
-74.68
-31.15
12.82
51.39
80.86
100.16
110.20
112.72
109.23
100.78
88.29
73.08
57.23
43.20
33.18
28.28
28.21
31.52
36.13
40.15
42.44
42.78
41.64
39.75
37.53
34.88
31.14
25.42
17.12
6.25
-6.41
-19.51
-31.66
-41.86
-49.87
-56.24
-61.99
-68.24
-75.91
-85.66
-97.76
-111.84
-126.43
-138.63
-144.39
-139.64
-121.83
-91.19
-51.17
-7.33
34.36
69.39
95.47
112.41
121.08
122.61
117.93
108.02
94.32
78.83
63.88
51.44
42.78
38.20
37.22
38.97
42.43
46.65
50.79
54.10
55.97
55.96
53.88
49.80
44.07
37.10
29.27
20.76
11.54
1.51
-9.35
-20.82
-32.45
-43.59
-53.69
-62.48
-70.14
-77.31
-85.05
-94.52
-106.62
-121.29
-136.86
-149.86
-155.59
-149.52
-129.04
-94.77
-50.73
-3.27
40.97
76.91
102.13
116.72
122.31
120.86
114.04
103.11
89.37
74.44
60.28
48.82
41.37
38.28
38.90
41.93
45.93
49.80
52.95
55.14
56.29
56.21
54.60
51.19
45.93
39.04
30.89
21.77
11.78
0.91
-10.78
-22.95
-34.93
-45.96
-55.49
-63.43
-70.19
-76.58
-83.61
-92.35
-103.54
-117.09
-131.42
-143.24
-147.94
-141.02
-119.83
-85.02
-40.74
6.55
50.09
84.91
108.75
121.90
126.06
123.16
114.69
101.81
85.77
68.33
51.62
37.79
28.36
23.84
23.68
26.56
30.91
35.32
38.89
41.22
42.29
42.21
41.03
38.60
34.64
28.87
21.12
11.51
0.49
-11.18
-22.67
-33.26
-42.54
-50.49
-57.45
-63.95
-70.65
-78.28
-87.57
-98.97
-112.09
-125.17
-134.91
-136.99
-127.58
-104.83
-70.06
-27.65
16.22
55.53
86.11
106.34
116.70
118.70
114.00
103.89
89.53
72.39
54.47
38.08
25.35
17.58
14.91
16.36
20.26
24.82
28.65
31.10
32.16
32.18
31.51
30.19
27.89
24.02
18.07
9.89
-0.20
-11.39
-22.67
-33.05
-41.95
-49.20
-55.17
-60.58
-66.38
-73.61
-83.14
-95.37
-109.64
-123.82
-134.25
-136.51
-126.82
-103.58
-68.37
-25.79
17.97
57.00
87.30
107.38
117.85
120.28
116.22
106.90
93.38
76.99
59.64
43.50
30.58
22.15
18.41
18.58
21.22
24.78
28.03
30.36
31.63
32.04
31.73
30.55
28.05
23.58
16.63
7.09
-4.63
-17.62
-30.69
-42.72
-52.96
-61.21
-67.89
-73.88
-80.23
-88.02
-98.06
-110.53
-124.56
-137.81
-146.55
-146.39
-133.76
-107.40
-69.30
-24.40
20.87
60.62
91.05
111.07
121.56
124.28
120.83
112.27
99.50
83.70
66.60
50.37
37.02
27.88
23.20
22.23
23.53
25.58
27.31
28.31
28.83
29.31
29.97
30.44
29.75
26.75
20.58
11.17
-0.66
-13.48
-25.72
-36.29
-44.85
-51.82
-58.18
-65.08
-73.59
-84.48
-97.97
-113.39
-128.75
-140.61
-144.64
-136.88
-115.29
-80.96
-38.12
7.01
48.19
80.98
103.53
116.19
120.47
117.92
109.68
96.70
80.30
62.45
45.63
32.09
23.17
18.96
18.35
19.59
21.08
21.93
22.10
22.20
22.88
24.22
25.46
25.19
21.91
14.75
3.95
-9.15
-22.61
-34.66
-44.26
-51.47
-57.28
-63.23
-70.83
-81.23
-94.80
-110.84
-127.27
-140.60
-146.48
-140.90
-121.61
-89.30
-47.78
-2.98
38.90
73.11
97.32
111.48
116.78
114.74
106.53
93.22
76.27
57.75
40.28
26.27
17.20
13.21
13.14
15.23
17.79
19.85
21.33
22.75
24.57
26.79
28.54
28.41
24.95
17.40
6.12
-7.44
-21.26
-33.50
-43.21
-50.61
-56.86
-63.62
-72.40
-84.15
-98.90
-115.44
-131.10
-141.98
-143.69
-132.65
-107.61
-70.48
-26.09
19.15
59.33
90.55
111.49
122.86
126.18
122.84
113.76
99.88
82.70
64.51
48.04
35.60
28.36
26.03
27.08
29.51
31.64
32.62
32.54
32.10
31.88
31.88
31.30
28.74
22.90
13.17
0.08
-14.85
-29.61
-42.49
-52.65
-60.41
-66.92
-73.79
-82.54
-94.22
-109.06
-126.02
-142.53
-154.53
-157.28
-146.75
-121.30
-82.72
-35.98
12.22
55.56
89.81
113.44
127.02
132.01
129.75
121.22
107.41
89.99
71.41
54.53
41.76
34.30
31.81
32.82
35.26
37.44
38.47
38.41
37.88
37.52
37.48
37.08
35.04
30.00
21.15
8.64
-6.30
-21.78
-35.96
-47.67
-56.79
-64.21
-71.42
-80.03
-91.30
-105.73
-122.62
-139.78
-153.51
-159.18
-152.50
-131.09
-95.65
-50.23
-1.18
44.87
82.78
110.03
126.54
133.71
133.18
126.30
114.14
98.05
80.04
62.67
48.54
39.47
35.97
37.11
40.96
45.35
48.63
50.09
49.98
49.02
47.85
46.44
44.06
39.51
31.72
20.32
5.92
-10.03
-25.69
-39.52
-50.77
-59.65
-67.13
-74.55
-83.21
-94.07
-107.54
-123.16
-139.19
-152.39
-158.46
-153.04
-133.37
-99.62
-55.35
-6.62
39.82
78.55
106.62
123.65
130.81
129.68
121.59
107.72
89.52
69.29
49.94
34.37
24.54
20.91
22.34
26.66
31.61
35.59
38.04
39.31
40.11
40.82
41.06
39.72
35.39
27.05
14.65
-0.66
-16.93
-32.11
-44.73
-54.41
-61.87
-68.47
-75.80
-85.15
-97.29
-112.06
-128.04
-142.23
-150.37
-147.89
-131.55
-100.91
-58.97
-11.56
34.51
73.48
102.10
119.75
127.57
127.27
120.23
107.54
90.44
70.90
51.61
35.47
24.69
20.20
21.31
26.18
32.44
38.03
41.75
43.36
43.36
42.44
40.96
38.64
34.68
28.10
18.31
5.53
-9.20
-24.28
-38.11
-49.62
-58.65
-65.78
-72.17
-79.09
-87.73
-98.94
-112.91
-128.70
-143.82
-154.25
-155.31
-143.16
-116.53
-77.53
-31.40
15.17
56.06
87.42
108.12
119.03
121.90
118.28
109.28
95.99
79.92
63.25
48.53
37.99
32.81
32.85
36.70
42.31
47.68
51.49
53.31
53.43
52.48
50.92
48.67
45.20
39.65
31.34
20.13
6.58
-8.12
-22.54
-35.51
-46.41
-55.39
-63.20
-70.89
-79.58
-90.27
-103.52
-119.13
-135.58
-149.70
-157.02
-152.86
-134.11
-100.68
-56.12
-6.72
40.48
79.78
108.18
125.44
133.05
132.99
126.81
115.63
100.60
83.39
66.22
51.51
41.06
35.66
34.79
37.03
40.53
43.76
45.81
46.53
46.24
45.36
44.05
42.00
38.46
32.61
23.92
12.49
-0.80
-14.56
-27.33
-38.13
-46.77
-53.82
-60.40
-67.74
-76.92
-88.64
-103.03
-119.26
-135.07
-146.72
-149.65
-139.82
-115.44
-78.09
-32.61
14.39
56.57
89.62
111.89
123.90
127.11
122.99
112.66
97.23
78.36
58.37
40.03
25.79
17.16
14.28
16.02
20.48
25.59
29.79
32.32
33.22
33.02
32.28
31.12
29.03
25.10
18.40
8.56
-3.96
-17.91
-31.58
-43.49
-52.86
-59.85
-65.40
-70.84
-77.44
-86.19
-97.53
-111.13
-125.47
-137.59
-143.36
-138.41
-119.76
-87.22
-44.04
3.82
49.49
87.25
113.95
129.11
134.14
131.03
121.56
107.15
89.19
69.55
50.53
34.50
23.24
17.43
16.58
19.28
23.77
28.51
32.43
35.13
36.62
37.07
36.57
34.90
31.58
26.06
17.95
7.30
-5.28
-18.71
-31.74
-43.38
-53.11
-61.06
-67.89
-74.54
-82.01
-91.25
-102.93
-117.01
-132.24
-145.70
-153.09
-149.76
-132.39
-100.59
-57.48
-8.96
38.06
77.80
106.94
124.88
132.80
132.54
125.77
113.76
97.79
79.52
61.11
44.82
32.48
25.01
22.22
23.01
25.79
29.04
31.70
33.35
34.06
34.09
33.54
32.15
29.29
24.25
16.53
6.16
-6.19
-19.39
-32.18
-43.52
-52.94
-60.60
-67.14
-73.48
-80.60
-89.41
-100.52
-113.92
-128.43
-141.28
-148.33
-145.03
-128.07
-96.95
-54.63
-6.95
39.26
78.16
106.46
123.59
130.85
130.20
123.33
111.51
95.91
78.07
60.04
43.98
31.63
23.90
20.63
20.90
23.37
26.78
30.18
33.05
35.16
36.40
36.66
35.71
33.25
28.90
22.39
13.64
2.92
-9.11
-21.46
-33.05
-43.08
-51.25
-57.90
-63.89
-70.34
-78.35
-88.73
-101.63
-116.19
-130.14
-139.85
-141.05
-130.11
-105.53
-68.96
-25.03
19.96
59.97
90.82
110.89
120.62
121.51
115.18
103.02
86.43
67.27
47.86
30.71
17.75
9.78
6.35
6.12
7.50
9.32
11.09
12.97
15.29
18.06
20.71
22.04
20.71
15.72
7.02
-4.47
-17.10
-29.04
-39.03
-46.73
-52.79
-58.54
-65.49
-74.90
-87.45
-102.70
-118.86
-132.65
-139.72
-135.82
-118.30
-87.35
-46.34
-1.00
42.32
78.49
104.66
120.30
126.29
124.03
114.80
99.88
80.91
60.21
40.51
24.32
13.18
7.19
5.22
5.44
6.25
6.82
7.28
8.22
10.07
12.57
14.55
14.41
10.73
3.01
-8.05
-20.79
-33.19
-43.66
-51.58
-57.44
-62.61
-68.88
-77.87
-90.44
-106.23
-123.23
-137.80
-145.29
-141.28
-123.22
-91.56
-49.99
-4.48
38.60
74.27
99.98
115.45
121.78
120.37
112.39
98.97
81.69
62.91
45.46
31.95
23.89
21.25
22.61
25.87
29.14
31.37
32.59
33.43
34.55
35.92
36.65
35.27
30.32
21.15
8.26
-6.72
-21.67
-34.71
-44.95
-52.62
-59.01
-65.88
-74.99
-87.50
-103.58
-121.94
-139.66
-152.37
-155.19
-144.25
-118.24
-79.32
-32.73
14.70
56.64
88.95
110.20
121.09
123.26
118.31
107.57
92.31
74.42
56.41
41.03
30.46
25.57
25.76
29.26
33.90
37.94
40.58
41.95
42.71
43.39
43.87
43.25
40.18
33.50
22.87
9.10
-6.02
-20.40
-32.38
-41.41
-48.10
-53.92
-60.65
-69.81
-82.30
-98.07
-115.79
-132.69
-144.64
-147.05
-136.26
-111.04
-73.45
-28.56
17.07
57.44
88.67
109.52
120.75
123.91
120.42
111.21
97.29
80.15
62.15
45.96
33.96
27.38
26.01
28.36
32.37
36.18
38.66
39.67
39.70
39.42
39.06
38.22
35.86
30.82
22.35
10.58
-3.38
-17.83
-31.06
-41.97
-50.43
-57.18
-63.51
-70.77
-80.12
-92.24
-107.01
-123.14
-137.85
-147.05
-146.32
-132.41
-104.71
-65.88
-21.25
22.81
60.83
89.54
108.01
116.96
117.65
111.31
99.05
82.41
63.64
45.59
31.07
22.05
19.02
20.97
25.82
31.28
35.61
38.03
38.72
38.39
37.67
36.63
34.59
30.49
23.38
13.05
0.30
-13.29
-25.96
-36.42
-44.34
-50.40
-55.89
-62.19
-70.47
-81.45
-95.15
-110.59
-125.47
-136.10
-138.19
-128.06
-104.30
-68.60
-25.52
18.75
58.43
89.58
110.68
122.14
125.27
121.48
111.97
98.01
81.29
64.05
48.73
37.40
31.25
30.25
33.29
38.59
44.26
48.80
51.35
51.77
50.34
47.49
43.45
38.18
31.37
22.73
12.17
0.04
-12.94
-25.78
-37.45
-47.30
-55.11
-61.29
-66.63
-72.14
-78.89
-87.82
-99.55
-113.88
-129.27
-142.55
-149.36
-145.27
-127.43
-96.02
-54.57
-9.04
34.09
69.69
95.20
110.51
117.05
116.64
110.77
100.65
87.54
73.11
59.40
48.35
41.29
38.53
39.37
42.51
46.58
50.54
53.80
56.10
57.22
56.86
54.65
50.33
43.98
36.03
27.04
17.50
7.65
-2.51
-13.08
-23.92
-34.66
-44.68
-53.39
-60.54
-66.35
-71.52
-77.19
-84.65
-94.97
-108.48
-124.03
-138.67
-147.98
-147.14
-132.68
-103.97
-63.88
-18.03
26.97
65.55
94.46
113.01
122.23
123.78
119.20
109.82
97.05
82.65
68.69
57.06
48.99
44.78
43.87
45.26
47.96
51.27
54.71
57.91
60.32
61.21
59.85
55.81
49.15
40.48
30.74
20.76
11.01
1.46
-8.19
-18.30
-28.86
-39.48
-49.47
-58.13
-65.10
-70.52
-75.10
-80.00
-86.55
-95.85
-108.21
-122.55
-136.07
-144.49
-143.21
-128.88
-100.86
-61.85
-17.31
26.32
63.47
90.94
108.00
115.78
115.99
110.10
99.27
84.67
68.01
51.53
37.64
28.20
23.90
24.13
27.28
31.43
34.93
36.89
37.16
36.10
34.22
31.84
28.93
25.13
19.89
12.75
3.63
-7.09
-18.47
-29.37
-38.82
-46.35
-52.21
-57.18
-62.35
-68.77
-77.27
-88.26
-101.50
-115.61
-127.84
-134.31
-130.94
-114.96
-86.22
-47.76
-4.99
35.94
70.00
94.46
108.96
114.70
113.33
106.24
94.53
79.34
62.31
45.60
31.48
21.71
17.07
17.13
20.48
25.31
30.01
33.54
35.55
36.20
35.80
34.50
32.13
28.26
22.40
14.27
3.97
-7.86
-20.21
-31.95
-42.23
-50.68
-57.56
-63.56
-69.61
-76.69
-85.65
-97.03
-110.71
-125.28
-137.80
-144.06
-139.69
-121.80
-90.43
-48.99
-3.37
39.89
75.59
101.09
116.30
122.72
122.20
116.22
105.77
91.84
75.87
59.76
45.60
35.04
28.92
27.05
28.43
31.63
35.31
38.45
40.55
41.54
41.55
40.66
38.70
35.25
29.77
21.89
11.65
-0.38
-13.18
-25.62
-36.72
-45.99
-53.52
-59.93
-66.19
-73.34
-82.38
-93.94
-107.97
-123.14
-136.68
-144.50
-142.26
-126.86
-97.88
-58.17
-13.23
30.47
67.45
94.54
111.15
118.49
118.38
112.45
101.86
87.66
71.25
54.48
39.38
27.66
20.30
17.30
17.80
20.42
23.75
26.71
28.77
29.90
30.36
30.31
29.56
27.55
23.53
16.94
7.74
-3.46
-15.55
-27.27
-37.60
-46.12
-53.08
-59.17
-65.43
-72.83
-82.21
-94.04
-108.12
-123.17
-136.50
-144.19
-142.04
-126.98
-98.54
-59.46
-15.11
28.12
64.76
91.57
107.81
114.47
113.17
105.41
92.46
75.72
57.08
38.83
23.22
11.76
4.73
1.31
0.02
-0.55
-1.21
-1.96
-2.28
-1.70
-0.32
0.96
0.67
-2.64
-9.71
-20.19
-32.72
-45.42
-56.62
-65.41
-71.96
-77.29
-82.89
-90.35
-100.90
-115.06
-132.08
-149.58
-163.55
-169.13
-162.06
-140.36
-105.31
-61.30
-14.48
29.16
65.39
92.35
109.98
119.10
120.56
114.99
103.27
86.96
68.48
50.58
35.70
25.19
19.09
16.41
15.69
15.77
16.10
16.67
17.64
18.84
19.49
18.31
13.94
5.52
-6.86
-22.05
-38.21
-53.40
-66.23
-76.26
-84.10
-91.11
-99.00
-109.34
-123.01
-139.71
-157.57
-173.09
-181.73
-179.08
-162.21
-131.00
-88.39
-39.67
8.96
52.10
86.29
110.25
124.31
129.63
127.61
119.73
107.68
93.51
79.46
67.54
59.05
54.38
53.10
54.36
57.37
61.66
66.94
72.88
78.73
83.23
84.91
82.52
75.56
64.51
50.75
35.98
21.64
8.36
-4.22
-17.25
-32.19
-50.08
-70.87
-92.92
-113.04
-126.99
-130.57
-120.76
-96.75
-60.32
-15.45
32.74
79.14
119.68
151.71
174.00
186.33
189.22
183.82
171.91
155.87
138.39
122.03
108.78
99.62
94.57
92.88
93.48
95.31
97.53
99.40
100.13
98.83
94.57
86.66
75.03
60.46
44.47
28.93
15.42
4.67
-3.74
-11.24
-19.76
-30.86
-45.04
-61.20
-76.66
-87.63
-90.36
-82.36
-63.47
-36.21
-5.22
24.11
47.23
61.65
67.26
65.87
60.15
52.61
45.01
38.41
33.30
29.91
28.28
28.14
28.91
29.77
29.96
29.01
26.87
23.87
20.42
16.74
12.71
7.80
1.36
-7.01
-17.20
-28.41
-39.36
-48.75
-55.83
-60.84
-64.98
-70.03
-77.49
-87.79
-99.87
-111.05
-117.75
-116.44
-104.78
-82.49
-51.66
-16.37
18.39
48.01
69.41
81.62
85.60
83.49
77.74
70.36
62.72
55.59
49.46
44.63
41.26
39.25
38.27
37.89
37.79
37.82
38.06
38.57
39.30
40.00
40.44
40.60
40.70
41.27
42.79
45.42
48.77
51.82
53.13
51.17
44.73
33.36
17.43
-1.90
-23.11
-44.80
-66.07
-86.67
-106.81
-126.72
-146.26
-164.61
-180.37
-191.98
-198.21
-198.72
-194.23
-186.19
-176.31
-165.80
-155.06
-143.76
-131.24
-117.15
-101.86
-86.43
-72.21
-60.29
-51.07
-44.26
-39.16
-35.11
-31.82
-29.43
-28.34
-28.97
-31.65
-36.53
-43.48
-51.86
-60.26
-66.31
-66.98
-59.31
-41.61
-14.35
19.66
55.94
89.57
116.56
134.64
143.33
143.49
136.62
124.47
108.83
91.55
74.52
59.38
47.30
38.70
33.30
30.32
28.91
28.38
28.33
28.53
28.71
28.39
26.92
23.68
18.41
11.42
3.49
-4.35
-11.25
-16.91
-21.75
-26.83
-33.46
-42.84
-55.30
-69.83
-83.75
-93.11
-93.70
-82.52
-59.09
-26.01
11.71
48.15
78.28
99.19
110.29
112.63
107.94
97.93
84.11
67.95
51.12
35.34
22.05
11.99
5.14
0.98
-1.18
-1.80
-1.19
0.47
2.82
5.17
6.64
6.39
3.86
-0.94
-7.46
-14.72
-21.76
-27.92
-33.18
-38.18
-44.06
-51.98
-62.59
-75.38
-88.33
-98.01
-100.42
-92.24
-72.16
-41.77
-5.27
31.68
63.66
86.98
100.34
104.49
101.31
92.93
81.05
67.02
51.98
37.09
23.53
12.23
3.82
-1.59
-4.22
-4.57
-3.25
-0.92
1.73
4.03
5.34
5.18
3.31
-0.18
-4.94
-10.46
-16.32
-22.43
-29.09
-37.01
-46.91
-59.01
-72.47
-85.09
-93.53
-94.24
-84.66
-64.40
-35.58
-2.47
29.88
57.03
76.22
86.63
89.01
84.79
75.52
62.61
47.38
31.25
15.80
2.56
-7.29
-13.24
-15.62
-15.50
-14.24
-13.10
-12.73
-13.09
-13.64
-13.78
-13.34
-12.87
-13.42
-16.15
-21.90
-30.84
-42.40
-55.26
-67.45
-76.49
-79.72
-75.01
-61.47
-40.03
-13.38
14.62
40.12
60.14
73.12
78.77
77.60
70.50
58.57
43.21
26.27
9.97
-3.60
-12.95
-17.70
-18.61
-17.27
-15.46
-14.50
-14.90
-16.35
-18.14
-19.58
-20.49
-21.35
-23.09
-26.82
-33.44
-43.30
-55.90
-69.68
-82.03
-89.65
-89.32
-78.94
-58.49
-30.28
1.58
32.37
58.05
76.21
86.11
88.20
83.48
73.13
58.40
40.96
22.94
6.73
-5.61
-13.00
-15.59
-14.73
-12.37
-10.34
-9.67
-10.48
-12.16
-13.84
-15.01
-15.75
-16.81
-19.35
-24.59
-33.36
-45.78
-60.92
-76.61
-89.54
-95.82
-92.00
-76.39
-49.85
-15.84
20.46
53.73
79.94
97.14
105.31
105.60
99.51
88.37
73.41
55.96
37.76
20.77
6.84
-2.77
-7.75
-8.74
-7.14
-4.72
-3.09
-3.33
-5.72
-9.79
-14.65
-19.41
-23.62
-27.45
-31.51
-36.71
-43.98
-54.04
-67.19
-82.88
-99.23
-112.91
-119.52
-114.86
-96.55
-65.20
-24.75
18.69
58.61
90.01
110.48
120.05
120.34
113.52
101.54
86.05
68.55
50.63
34.00
20.17
10.22
4.48
2.55
3.44
5.80
8.27
9.78
9.70
7.88
4.53
-0.01
-5.45
-11.65
-18.55
-26.17
-34.56
-43.92
-54.68
-67.32
-81.84
-97.10
-110.21
-116.97
-112.92
-95.23
-64.06
-23.08
21.57
63.15
96.29
118.22
128.74
129.37
122.25
109.51
93.01
74.61
56.18
39.57
26.16
16.63
10.86
8.18
7.70
8.62
10.29
12.17
13.70
14.18
12.91
9.41
3.63
-3.94
-12.44
-20.92
-28.76
-35.91
-43.02
-51.22
-61.73
-75.25
-91.26
-107.55
-120.25
-124.67
-116.85
-95.10
-60.99
-19.15
24.14
62.85
92.76
112.18
121.42
121.85
115.01
102.40
85.66
66.93
48.78
33.69
23.34
18.07
16.89
18.10
19.98
21.55
22.64
23.68
25.11
26.80
27.95
27.29
23.65
16.58
6.65
-4.74
-15.92
-25.52
-33.04
-38.88
-44.10
-50.05
-57.95
-68.54
-81.67
-95.91
-108.36
-115.06
-111.99
-96.57
-68.90
-32.15
8.19
46.10
76.74
97.54
108.20
109.92
104.33
93.01
77.47
59.45
41.12
24.89
12.73
5.66
3.43
4.73
7.79
11.15
14.05
16.48
18.83
21.27
23.43
24.32
22.71
17.75
9.48
-1.13
-12.43
-22.78
-31.13
-37.32
-42.09
-46.78
-52.84
-61.39
-72.79
-86.14
-99.13
-108.23
-109.46
-99.72
-77.98
-46.01
-8.07
30.35
64.09
89.59
105.36
111.60
109.48
100.44
86.03
68.01
48.52
29.98
14.61
3.90
-1.82
-3.34
-2.15
0.17
2.53
4.60
6.60
8.83
11.17
12.87
12.74
9.66
3.23
-5.92
-16.34
-26.32
-34.57
-40.67
-45.14
-49.21
-54.32
-61.72
-72.06
-84.92
-98.44
-109.32
-113.39
-106.88
-87.90
-57.48
-19.58
20.04
55.63
83.13
100.86
109.23
109.68
103.81
92.88
78.05
60.89
43.49
28.28
17.37
11.76
11.12
13.85
17.82
21.10
22.64
22.39
21.09
19.55
18.20
16.66
13.95
8.93
0.96
-9.70
-21.85
-33.75
-43.82
-51.19
-56.05
-59.41
-62.80
-67.68
-75.13
-85.51
-98.16
-111.10
-121.01
-123.79
-115.67
-94.73
-61.96
-21.38
21.05
59.28
88.97
108.34
117.85
119.13
113.95
103.65
89.35
72.42
54.89
39.06
27.04
19.98
17.79
19.29
22.68
26.29
29.01
30.44
30.79
30.49
29.84
28.70
26.43
22.13
15.02
4.95
-7.42
-20.65
-33.06
-43.31
-50.87
-56.15
-60.31
-64.73
-70.66
-79.01
-90.01
-102.99
-115.98
-125.73
-128.11
-119.44
-97.95
-64.85
-24.36
17.53
54.91
83.70
102.28
111.21
112.13
106.72
96.32
82.09
65.51
48.55
33.44
22.12
15.61
13.83
15.69
19.60
24.00
27.80
30.51
32.23
33.34
34.10
34.43
33.80
31.35
26.33
18.40
8.04
-3.64
-15.15
-25.19
-33.12
-39.14
-44.13
-49.29
-55.74
-64.27
-75.19
-88.09
-101.53
-112.97
-118.92
-115.83
-101.30
-75.24
-40.37
-1.58
35.50
66.14
87.65
99.49
102.66
98.70
89.10
75.20
58.49
40.97
24.98
12.81
5.93
4.59
7.67
13.15
18.87
23.24
25.66
26.48
26.53
26.51
26.46
25.70
23.10
17.73
9.31
-1.50
-13.31
-24.54
-33.99
-41.24
-46.73
-51.49
-56.82
-63.92
-73.52
-85.62
-99.06
-111.30
-118.70
-117.33
-104.33
-79.18
-44.32
-4.58
34.24
67.11
90.96
105.02
110.12
107.75
99.34
86.20
69.75
51.89
34.97
21.31
12.58
9.26
10.60
14.86
20.04
24.46
27.20
28.17
27.84
26.81
25.41
23.44
20.29
15.19
7.66
-2.15
-13.43
-24.90
-35.24
-43.63
-49.96
-54.83
-59.32
-64.67
-72.02
-82.14
-95.11
-109.91
-124.00
-133.48
-133.93
-121.87
-96.27
-59.36
-16.22
26.78
63.99
91.87
109.49
117.78
118.42
112.98
102.59
88.31
71.63
54.59
39.47
28.26
21.98
20.49
22.54
26.34
30.13
32.69
33.58
33.08
31.76
30.14
28.27
25.72
21.72
15.63
7.21
-3.06
-14.24
-25.17
-34.92
-43.08
-49.84
-55.88
-62.09
-69.36
-78.50
-89.97
-103.60
-118.16
-130.95
-138.10
-135.39
-119.81
-90.96
-51.70
-7.51
35.18
70.97
96.79
112.20
118.53
117.66
111.16
100.16
85.72
69.36
53.20
