1523192957.00
64.000000
-0.00
-0.00
-0.00
-0.00
-0.00
-0.00
-0.00
-0.00
-0.00
-0.00
0.00
0.01
0.01
-0.00
-0.03
-0.05
-0.05
0.00
0.13
0.36
0.66
1.01
1.37
1.72
2.06
2.40
2.79
3.24
3.80
4.42
5.06
5.66
6.20
6.68
7.15
7.68
8.31
9.14
10.09
11.04
11.88
12.56
13.14
13.76
14.65
15.96
17.91
20.32
22.90
25.38
27.58
29.57
31.68
34.32
37.81
42.54
48.15
54.10
59.83
64.97
69.58
74.14
79.34
85.71
93.76
103.00
112.62
121.73
129.77
136.75
143.30
150.75
157.77
166.64
177.95
191.79
206.97
220.57
228.25
225.36
208.53
176.87
132.76
80.05
23.07
-34.94
-92.44
-149.16
-205.23
-260.37
-313.74
-363.87
-409.82
-450.89
-486.46
-515.68
-537.14
-549.10
-549.80
-538.16
-513.95
-478.37
-433.51
-382.02
-326.53
-269.28
-212.00
-155.96
-102.18
-51.52
-4.97
36.60
72.54
102.57
126.83
145.83
160.27
170.88
178.26
182.83
184.86
184.58
182.28
178.29
173.03
166.91
160.26
153.35
146.32
139.22
132.12
125.05
118.07
111.26
104.68
98.40
92.43
86.81
81.54
76.62
72.07
67.90
64.11
60.71
57.70
55.09
52.86
51.02
49.55
48.41
47.55
46.88
46.29
45.61
44.67
43.30
41.32
38.60
35.08
30.73
25.59
19.80
13.53
7.04
0.59
-5.55
-11.14
-15.96
-19.88
-22.82
-24.75
-25.73
-25.88
-25.29
-24.12
-22.51
-20.58
-18.44
-16.14
-13.74
-11.28
-8.78
-6.24
-3.68
-1.07
1.58
4.29
7.09
10.00
12.98
16.01
19.08
22.20
25.39
28.67
32.08
35.66
39.49
43.49
47.60
51.80
56.10
60.49
65.01
69.68
74.57
79.78
85.16
90.64
96.16
101.71
107.28
112.86
118.46
124.12
129.89
135.47
140.65
145.21
148.93
151.52
152.60
151.71
148.12
143.17
137.35
130.96
124.22
117.27
110.24
103.24
96.36
89.74
83.53
77.56
71.79
66.18
60.74
55.51
50.52
45.84
41.55
37.75
34.30
31.12
28.16
25.36
22.73
20.24
17.91
15.78
13.90
12.18
10.58
9.08
7.68
6.39
5.20
4.14
3.22
2.46
1.81
1.25
0.74
0.26
-0.20
-0.65
-1.09
-1.52
-1.94
-2.35
-2.77
-3.19
-3.62
-4.05
-4.49
-4.91
-5.31
-5.69
-6.02
-6.28
-6.48
-6.59
-6.61
-6.55
-6.42
-6.22
-5.99
-5.75
-5.51
-5.30
-5.14
-5.04
-5.00
-5.04
-5.13
-5.29
-5.50
-5.77
-6.07
-6.40
-6.75
-7.09
-7.41
-7.68
-7.89
-8.04
-8.15
-8.25
-8.41
-8.61
-8.88
-9.16
-9.42
-9.63
-9.78
-9.91
-10.08
-10.33
-10.72
-11.22
-11.78
-12.36
-12.90
-13.40
-13.94
-14.64
-15.60
-16.88
-18.42
-20.08
-21.69
-23.11
-24.39
-25.67
-27.26
-29.43
-32.32
-35.81
-39.57
-43.18
-46.36
-49.15
-51.94
-55.39
-60.10
-66.41
-74.13
-82.62
-91.07
-98.84
-105.87
-112.68
-120.27
-129.59
-141.12
-154.58
-169.09
-183.51
-196.93
-209.11
-220.49
-232.09
-245.31
-261.70
-282.68
-308.81
-338.95
-369.68
-395.50
-410.31
-409.41
-391.46
-359.09
-317.94
-274.53
-234.08
-199.35
-170.89
-148.10
-130.33
-117.31
-108.78
-103.86
-100.79
-97.37
-91.71
-82.99
-71.65
-59.16
-47.22
-37.11
-29.27
-23.31
-18.49
-14.08
-9.86
-6.10
-3.52
-2.88
-4.75
-9.34
-16.41
-25.20
-34.35
-41.98
-45.96
-44.41
-36.33
-22.00
-2.95
18.43
39.68
58.78
74.47
86.16
93.65
96.95
96.20
91.78
84.41
75.12
65.05
55.24
46.49
39.33
34.07
30.81
29.48
29.68
30.72
31.74
31.94
30.85
28.46
25.13
21.28
17.20
12.87
8.03
2.33
-4.57
-12.96
-22.94
-34.24
-45.94
-56.21
-62.58
-62.52
-54.46
-38.47
-16.50
8.22
32.21
52.79
68.58
79.39
85.68
87.97
86.62
81.90
74.40
65.13
55.44
46.63
39.61
34.61
31.35
29.29
28.05
27.48
27.65
28.58
29.99
31.18
31.16
29.02
24.22
16.96
8.04
-1.28
-9.84
-16.88
-22.34
-26.82
-31.31
-36.89
-44.38
-54.08
-65.33
-76.46
-84.85
-87.54
-82.19
-67.96
-46.05
-19.42
8.16
33.27
53.70
68.68
78.56
84.08
85.95
84.68
80.68
74.57
67.16
59.44
52.35
46.62
42.59
40.24
39.26
39.14
39.43
39.80
40.11
40.32
40.41
40.17
39.24
37.07
33.24
27.55
20.23
11.90
3.37
-4.61
-11.55
-17.39
-22.48
-27.37
-32.61
-38.64
-45.72
-53.86
-62.66
-71.05
-77.28
-79.07
-74.31
-61.89
-42.29
-17.72
8.61
33.40
54.18
69.76
80.10
85.69
87.12
84.89
79.48
71.68
62.61
53.60
45.77
39.76
35.67
33.15
31.70
31.01
30.98
31.70
33.20
35.28
37.43
38.91
39.00
37.27
33.72
28.77
23.06
17.22
11.55
6.01
0.29
-5.93
-12.74
-19.89
-26.83
-33.02
-38.13
-42.24
-45.82
-49.57
-54.21
-60.21
-67.61
-75.79
-83.43
-88.49
-88.78
-82.52
-69.07
-49.26
-25.36
-0.31
23.05
42.72
57.74
68.03
73.88
75.66
73.77
68.77
61.61
53.57
45.99
39.88
35.70
33.33
32.27
32.01
32.21
32.83
33.94
35.59
37.65
39.72
41.26
41.64
40.42
37.41
32.90
27.51
21.94
16.77
12.16
7.83
3.28
-1.93
-7.90
-14.34
-20.65
-26.28
-30.92
-34.57
-37.59
-40.52
-43.93
-48.35
-54.08
-60.86
-67.70
-72.87
-74.29
-70.14
-59.63
-43.35
-23.25
-1.98
17.95
34.72
47.46
56.12
60.95
62.37
60.75
56.56
50.50
43.36
36.06
29.29
23.66
19.44
16.80
15.75
16.15
17.66
19.79
21.94
23.54
24.23
23.84
22.44
20.23
17.44
14.31
10.94
7.33
3.32
-1.21
-6.32
-11.90
-17.63
-23.11
-28.03
-32.37
-36.42
-40.74
-45.88
-52.11
-59.07
-65.68
-70.24
-70.87
-66.05
-55.25
-39.17
-19.63
0.85
19.80
35.37
46.64
53.56
56.59
56.36
53.42
48.26
41.43
33.68
25.91
19.00
13.64
10.14
8.45
8.22
9.01
10.34
11.81
13.10
13.99
14.41
14.30
13.70
12.53
10.68
7.97
4.40
0.16
-4.34
-8.63
-12.43
-15.74
-18.84
-22.10
-25.88
-30.40
-35.81
-42.16
-49.24
-56.41
-62.31
-65.12
-63.11
-55.27
-41.86
-24.41
-5.26
13.18
29.07
41.37
49.80
54.52
55.83
54.14
49.94
43.90
36.94
29.96
23.72
18.75
15.21
12.95
11.74
11.26
11.29
11.68
12.31
13.00
13.58
13.83
13.50
12.37
10.32
7.33
3.55
-0.75
-5.23
-9.54
-13.39
-16.70
-19.58
-22.41
-25.72
-30.11
-35.96
-43.15
-50.85
-57.55
-61.35
-60.53
-54.19
-42.57
-26.99
-9.46
7.96
23.61
36.47
46.12
52.46
55.56
55.53
52.62
47.35
40.48
32.92
25.56
19.09
13.94
10.19
7.74
6.38
5.86
6.03
6.78
8.05
9.67
11.36
12.67
13.07
12.11
9.62
5.79
1.14
-3.70
-8.23
-12.31
-16.19
-20.42
-25.58
-32.07
-39.94
-48.73
-57.47
-64.69
-68.70
-67.93
-61.45
-49.41
-33.14
-14.79
3.27
19.08
31.54
40.33
45.69
48.03
47.68
44.90
40.02
33.62
26.48
19.44
13.13
7.92
3.85
0.87
-1.11
-2.03
-1.76
-0.32
2.07
4.79
7.03
8.03
7.32
4.94
1.36
-2.69
-6.59
-9.93
-12.78
-15.44
-18.41
-22.17
-27.07
-33.26
-40.43
-47.67
-53.51
-56.14
-54.02
-46.39
-33.74
-17.64
-0.36
15.86
29.33
39.14
45.09
47.46
46.67
43.21
37.68
30.78
23.32
16.05
9.54
4.14
-0.02
-2.89
-4.48
-4.74
-3.66
-1.28
2.16
6.22
10.21
13.39
15.11
14.99
13.09
9.80
5.82
1.74
-2.13
-5.91
-10.15
-15.55
-22.60
-31.19
-40.41
-48.56
-53.57
-53.63
-47.83
-36.49
-21.16
-4.08
12.44
26.60
37.37
44.40
47.85
48.11
45.69
41.14
35.13
28.44
21.76
15.66
10.50
6.38
3.26
1.01
-0.47
-1.27
-1.43
-1.07
-0.43
0.22
0.55
0.32
-0.56
-2.03
-4.00
-6.43
-9.38
-13.04
-17.68
-23.58
-30.82
-38.98
-47.07
-53.44
-56.24
-53.90
-45.76
-32.42
-15.64
2.17
18.68
32.16
41.81
47.59
49.96
49.49
46.69
42.04
36.01
29.27
22.52
16.42
11.44
7.73
5.19
3.57
2.59
2.07
1.93
2.08
2.41
2.72
2.70
2.05
0.52
-2.08
-5.74
-10.28
-15.54
-21.42
-28.08
-35.62
-43.83
-51.73
-57.59
-59.31
-55.17
-44.68
-28.88
-10.08
8.89
25.64
38.74
47.81
53.14
55.21
54.45
51.16
45.73
38.76
31.02
23.35
16.47
10.83
6.63
3.79
2.10
1.26
0.92
0.81
0.73
0.57
0.25
-0.34
-1.37
-3.04
-5.54
-8.94
-13.21
-18.42
-24.63
-31.89
-39.93
-47.84
-54.04
-56.64
-54.04
-45.64
-32.12
-15.32
2.38
18.73
32.19
42.13
48.59
51.97
52.73
51.25
47.80
42.70
36.36
29.29
22.15
15.54
10.02
5.90
3.25
1.84
1.28
1.03
0.65
-0.20
-1.69
-3.83
-6.57
-9.84
-13.58
-17.83
-22.64
-28.23
-34.81
-42.47
-50.81
-58.73
-64.46
-65.92
-61.43
-50.36
-33.58
-13.23
7.88
27.12
42.72
53.92
60.81
63.90
63.74
60.78
55.43
48.18
39.68
30.66
21.85
13.93
7.48
2.90
0.42
-0.08
0.85
2.43
3.76
4.17
3.46
1.79
-0.51
-3.20
-6.34
-10.24
-15.29
-21.78
-29.74
-38.89
-48.53
-57.38
-63.65
-65.31
-60.76
-49.46
-32.40
-11.86
9.26
28.30
43.57
54.44
61.02
63.78
63.15
59.54
53.41
45.47
36.56
27.63
19.55
13.00
8.38
5.72
4.82
5.10
5.93
6.70
7.01
6.68
5.69
4.06
1.74
-1.35
-5.29
-10.07
-15.75
-22.40
-30.09
-38.67
-47.37
-54.68
-58.50
-56.80
-48.47
-33.83
-14.77
5.94
25.45
41.68
53.52
60.78
63.77
62.95
58.94
52.42
44.24
35.31
26.50
18.49
11.82
6.83
3.69
2.32
2.30
3.03
3.88
4.39
4.44
4.12
3.54
2.61
1.07
-1.48
-5.35
-10.67
-17.37
-25.32
-34.19
-43.33
-51.55
-57.11
-58.07
-52.91
-41.21
-24.06
-3.78
16.76
34.96
49.18
58.87
64.23
65.77
63.97
59.25
52.15
43.46
34.24
25.52
18.17
12.61
8.94
6.96
6.30
6.53
7.12
7.55
7.39
6.43
4.71
2.41
-0.27
-3.23
-6.62
-10.70
-15.82
-22.31
-30.28
-39.51
-49.15
-57.75
-63.31
-63.85
-58.02
-45.66
-28.08
-7.70
12.58
30.21
43.52
51.94
55.64
55.23
51.44
44.96
36.54
27.14
17.85
9.78
3.74
0.05
-1.53
-1.67
-1.21
-0.81
-0.80
-1.13
-1.54
-1.77
-1.85
-2.05
-2.89
-4.89
-8.43
-13.73
-20.86
-29.66
-39.57
-49.42
-57.37
-61.23
-59.14
-50.24
-35.14
-15.89
4.72
23.93
39.71
51.00
57.60
59.84
58.19
53.25
45.72
36.54
26.76
17.47
9.60
3.74
0.05
-1.80
-2.44
-2.59
-2.86
-3.56
-4.69
-5.94
-7.05
-7.76
-8.25
-8.91
-10.39
-13.45
-18.69
-26.42
-36.34
-47.41
-57.73
-64.87
-66.49
-61.07
-48.54
-30.33
-9.06
12.34
31.38
46.53
57.22
63.59
65.98
64.73
60.20
52.89
43.60
33.41
23.58
15.23
9.06
5.29
3.54
3.10
3.17
3.08
2.49
1.38
-0.12
-1.86
-3.88
-6.35
-9.64
-14.01
-19.65
-26.60
-34.83
-44.18
-54.11
-63.57
-70.79
-73.69
-70.30
-59.72
-42.49
-20.70
2.60
24.28
41.94
54.38
61.50
63.94
62.57
58.29
51.88
44.11
35.87
28.05
21.53
16.84
14.20
13.34
13.69
14.58
15.37
15.62
15.11
13.80
11.72
8.86
5.18
0.58
-4.89
-11.21
-18.19
-25.74
-33.93
-42.94
-52.74
-62.79
-71.63
-77.04
-76.63
-68.72
-53.15
-31.57
-7.01
17.14
38.05
54.12
65.00
71.08
73.07
71.57
67.14
60.37
52.06
43.11
34.46
26.80
20.58
16.02
13.11
11.68
11.39
11.71
12.08
11.94
10.90
8.74
5.50
1.34
-3.46
-8.66
-14.06
-19.62
-25.51
-32.12
-39.85
-48.78
-58.36
-67.14
-72.93
-73.37
-66.81
-52.95
-33.18
-10.20
12.78
32.94
48.46
58.69
63.85
64.57
61.63
55.85
48.12
39.41
30.69
22.78
16.20
11.18
7.72
5.67
4.94
5.39
6.79
8.71
10.53
11.51
11.01
8.76
4.85
-0.19
-5.71
-11.08
-16.04
-20.65
-25.32
-30.70
-37.50
-46.08
-56.10
-66.25
-74.23
-77.34
-73.37
-61.52
-42.82
-19.96
3.64
24.97
42.02
54.13
61.49
64.59
63.89
59.80
52.90
44.13
34.76
26.08
19.08
14.20
11.32
9.96
9.59
9.84
10.62
11.90
13.64
15.55
17.01
17.26
15.65
11.95
6.49
0.06
-6.37
-12.10
-16.91
-21.18
-25.68
-31.23
-38.54
-47.79
-58.56
-69.57
-78.78
-83.68
-82.00
-72.40
-55.19
-32.33
-6.93
17.68
38.88
55.21
66.35
72.65
74.59
72.60
67.06
58.61
48.25
37.32
27.20
18.97
13.08
9.41
7.43
6.60
6.67
7.71
10.06
13.86
18.78
23.87
27.82
29.32
27.64
22.85
15.81
7.80
-0.00
-6.84
-12.58
-17.63
-22.66
-28.30
-35.07
-43.17
-52.27
-61.33
-68.60
-71.87
-69.13
-59.27
-42.70
-21.34
1.87
23.87
42.23
55.70
64.03
67.69
67.36
63.72
57.36
48.92
39.16
28.93
19.04
10.17
2.76
-2.96
-6.91
-9.07
-9.46
-8.17
-5.47
-1.88
1.88
4.91
6.38
5.73
2.84
-1.90
-7.76
-13.85
-19.44
-24.17
-28.11
-31.76
-35.85
-41.17
-48.15
-56.53
-65.14
-71.92
-74.39
-70.48
-59.36
-41.87
-20.30
2.33
23.24
40.61
53.67
62.49
67.37
68.53
66.06
60.18
51.48
41.05
30.27
20.44
12.45
6.64
2.86
0.74
-0.04
0.29
1.69
3.94
6.61
8.98
10.17
9.50
6.71
2.08
-3.61
-9.41
-14.55
-18.76
-22.38
-26.22
-31.27
-38.27
-47.18
-57.09
-66.13
-71.85
-72.02
-65.30
-51.78
-32.96
-11.45
9.90
28.61
43.21
53.19
58.86
60.88
59.98
56.79
51.79
45.44
38.19
30.57
23.19
16.65
11.47
8.00
6.27
6.10
7.01
8.39
9.51
9.78
8.75
6.36
2.85
-1.30
-5.60
-9.69
-13.45
-17.04
-20.88
-25.59
-31.73
-39.53
-48.51
-57.32
-63.75
-65.43
-60.55
-48.69
-31.11
-10.37
10.45
28.67
42.61
51.75
56.37
57.17
54.85
50.04
43.24
35.08
26.23
17.52
9.88
4.04
0.50
-0.77
-0.22
1.29
2.85
3.74
3.57
2.33
0.17
-2.68
-6.05
-9.78
-13.70
-17.54
-21.13
-24.55
-28.32
-33.18
-39.67
-47.49
-55.21
-60.44
-60.56
-53.74
-39.81
-20.39
1.58
22.87
40.86
54.12
62.43
66.31
66.51
63.72
58.52
51.44
43.15
34.37
25.75
17.80
10.84
5.04
0.58
-2.34
-3.63
-3.27
-1.65
0.50
2.22
2.54
0.75
-3.33
-9.38
-16.66
-24.29
-31.51
-38.00
-43.95
-50.11
-57.37
-66.28
-76.45
-86.28
-93.16
-94.32
-87.82
-73.37
-52.59
-28.50
-4.53
16.46
32.77
43.94
50.31
52.60
51.54
47.83
42.15
35.19
27.68
20.22
13.33
7.42
2.81
-0.30
-1.74
-1.62
-0.24
1.84
3.85
5.03
4.79
2.87
-0.62
-5.17
-10.08
-14.76
-18.93
-22.76
-26.91
-32.22
-39.40
-48.49
-58.56
-67.67
-73.27
-72.95
-65.25
-50.29
-29.73
-6.39
16.69
36.95
52.89
64.07
70.79
73.67
73.37
70.41
65.25
58.37
50.34
41.80
33.40
25.77
19.40
14.68
11.86
10.99
11.83
13.75
15.89
17.27
17.21
15.47
12.33
8.38
4.18
-0.05
-4.48
-9.58
-15.99
-24.18
-34.27
-45.75
-57.41
-67.29
-73.09
-72.82
-65.43
-51.27
-32.13
-10.71
10.23
28.42
42.52
52.08
57.19
58.31
56.02
51.04
44.28
36.70
29.23
22.45
16.67
11.85
7.94
4.95
3.14
2.75
3.90
6.22
8.95
10.97
11.25
9.18
4.77
-1.39
-8.35
-15.22
-21.44
-26.92
-32.05
-37.58
-44.34
-52.82
-62.69
-72.53
-79.98
-82.37
-77.71
-65.38
-46.60
-23.94
-0.51
21.00
38.82
52.18
60.91
65.08
64.90
60.84
53.75
44.91
35.75
27.42
20.58
15.28
11.15
7.77
4.98
2.92
1.89
2.06
3.24
4.79
5.83
5.54
3.46
-0.27
-5.06
-10.07
-14.67
-18.64
-22.30
-26.39
-31.82
-39.38
-49.37
-61.27
-73.56
-83.83
-89.27
-87.46
-77.21
-59.16
-35.62
-9.95
14.56
35.47
51.58
62.77
69.37
71.87
70.55
65.76
58.13
48.68
38.79
29.80
22.70
17.84
14.95
13.41
12.70
12.56
13.08
14.47
16.77
19.59
22.14
23.44
22.71
19.63
14.47
7.93
0.92
-5.82
-11.84
-17.14
-22.00
-26.98
-32.71
-39.77
-48.46
-58.51
-68.85
-77.57
-82.27
-80.65
-71.47
-54.96
-33.01
-8.55
15.32
36.18
52.68
64.51
71.91
75.19
74.53
70.13
62.50
52.61
41.85
31.71
23.37
17.42
13.81
12.07
11.61
11.95
12.88
14.31
16.16
18.16
19.81
20.45
19.48
16.61
11.97
6.15
-0.16
-6.31
-12.00
-17.21
-22.17
-27.19
-32.53
-38.55
-45.54
-53.63
-62.46
-70.83
-76.74
-77.78
-72.11
-59.16
-40.14
-17.62
5.19
25.63
42.05
53.95
61.52
65.13
65.00
61.29
54.40
45.18
35.01
25.37
17.49
12.03
8.91
7.63
7.51
8.09
9.24
11.01
13.42
16.21
18.74
20.12
19.55
16.60
11.40
4.65
-2.71
-9.76
-15.95
-21.23
-26.01
-30.99
-36.95
-44.40
-53.33
-62.97
-71.70
-77.35
-77.72
-71.31
-57.93
-38.85
-16.49
6.30
27.04
44.11
56.86
65.23
69.45
69.72
66.31
59.68
50.65
40.41
30.22
21.24
14.12
9.09
5.95
4.41
4.18
5.15
7.13
9.86
12.74
14.92
15.47
13.73
9.56
3.37
-3.92
-11.29
-17.96
-23.60
-28.43
-33.12
-38.53
-45.47
-54.35
-64.81
-75.45
-83.94
-87.47
-83.76
-71.93
-53.01
-29.67
-5.36
16.85
35.09
48.72
57.99
63.33
64.98
63.04
57.75
49.90
40.75
31.80
24.21
18.58
14.81
12.37
10.71
9.62
9.27
9.98
11.89
14.66
17.45
19.16
18.77
15.86
10.64
3.94
-3.17
-9.79
-15.57
-20.65
-25.69
-31.57
-39.04
-48.47
-59.55
-71.06
-80.92
-86.55
-85.63
-76.87
-60.60
-38.74
-14.26
9.78
30.98
48.01
60.37
68.04
71.14
69.92
64.88
57.00
47.64
38.35
30.34
24.30
20.25
17.77
16.28
15.33
14.75
14.61
15.08
16.20
17.71
19.00
19.29
17.88
14.37
8.92
2.13
-5.16
-12.19
-18.54
-24.21
-29.53
-35.00
-41.08
-48.03
-55.67
-63.16
-68.96
-71.08
-67.62
-57.54
-41.11
-20.19
2.42
23.76
41.54
54.56
62.70
66.39
66.27
62.88
56.78
48.71
39.60
30.52
22.41
15.88
11.15
8.12
6.53
6.09
6.59
7.77
9.41
11.14
12.50
13.03
12.34
10.29
7.06
3.05
-1.20
-5.38
-9.40
-13.65
-18.79
-25.58
-34.31
-44.53
-54.76
-62.75
-66.04
-62.76
-52.31
-35.57
-14.71
7.45
28.24
45.56
58.20
65.68
68.03
65.72
59.52
50.44
39.66
28.33
17.37
7.46
-0.96
-7.55
-12.10
-14.40
-14.52
-12.93
-10.41
-7.98
-6.53
-6.57
-8.07
-10.58
-13.51
-16.42
-19.22
-22.20
-25.89
-30.82
-37.46
-45.99
-56.20
-67.18
-77.25
-84.13
-85.41
-79.40
-65.78
-45.89
-22.36
1.67
23.49
41.28
54.28
62.42
65.91
65.15
60.73
53.57
44.86
35.85
27.52
20.33
14.32
9.29
5.10
1.88
-0.06
-0.39
0.94
3.56
6.61
8.99
9.71
8.11
4.17
-1.59
-8.26
-14.92
-20.92
-26.16
-31.03
-36.29
-42.86
-51.42
-62.05
-73.80
-84.63
-91.73
-92.35
-84.67
-68.61
-46.05
-20.10
5.74
28.72
47.21
60.82
69.75
74.33
74.71
71.09
63.99
54.56
44.37
35.03
27.68
22.61
19.33
17.04
15.06
13.32
12.15
12.12
13.44
15.81
18.33
19.90
19.59
16.95
12.22
6.08
-0.61
-7.15
-13.16
-18.68
-24.04
-29.78
-36.51
-44.76
-54.71
-65.82
-76.61
-84.73
-87.54
-82.87
-69.94
-49.81
-25.07
0.87
24.80
44.42
58.66
67.41
71.14
70.51
66.29
59.35
50.72
41.56
33.05
26.17
21.53
19.29
19.19
20.69
23.18
26.01
28.72
30.91
32.26
32.50
31.40
28.93
25.21
20.68
15.78
10.96
6.42
2.06
-2.39
-7.16
-12.38
-17.99
-23.76
-29.53
-35.15
-40.61
-46.05
-51.81
-58.31
-65.84
-74.15
-82.15
-87.85
-88.72
-82.69
-68.96
-48.54
-24.04
1.19
24.07
42.65
56.23
65.11
69.88
71.03
68.92
63.92
56.76
48.53
40.55
33.96
29.41
26.96
26.23
26.66
27.85
29.61
31.91
34.70
37.70
40.48
42.44
43.09
42.11
39.51
35.56
30.76
25.65
20.68
16.05
11.70
7.33
2.57
-2.84
-8.91
-15.29
-21.42
-26.78
-31.03
-34.23
-36.75
-39.04
-41.67
-45.13
-49.84
-55.94
-63.24
-70.82
-77.05
-79.77
-77.02
-67.68
-52.03
-31.80
-9.59
11.88
30.56
45.30
55.83
62.36
65.23
64.74
61.25
55.31
47.77
39.72
32.27
26.33
22.37
20.28
19.59
19.65
19.94
20.30
20.84
21.77
23.11
24.59
25.68
25.72
24.28
21.29
17.10
12.27
7.37
2.70
-1.75
-6.30
-11.27
-16.77
-22.57
-28.20
-33.11
-37.04
-40.09
-42.80
-45.89
-50.02
-55.56
-62.35
-69.64
-76.04
-79.79
-79.10
-72.69
-60.32
-42.90
-22.43
-1.35
17.97
33.89
45.67
53.33
57.30
58.09
56.06
51.53
44.90
36.80
28.23
20.26
13.84
9.54
7.40
6.99
7.61
8.59
9.43
9.96
10.15
10.09
9.78
9.13
8.05
6.43
4.25
1.46
-1.94
-5.97
-10.62
-15.74
-21.10
-26.39
-31.37
-35.85
-39.83
-43.44
-47.04
-51.05
-55.79
-61.19
-66.46
-70.07
-70.08
-64.88
-53.86
-37.85
-18.92
0.26
17.32
30.85
40.46
46.55
49.72
50.34
48.50
44.15
37.45
28.91
19.42
9.98
1.43
-5.71
-11.29
-15.33
-17.87
-19.06
-19.12
-18.49
-17.80
-17.79
-18.89
-21.23
-24.62
-28.75
-33.36
-38.48
-44.29
-50.99
-58.66
-67.22
-76.44
-86.05
-95.84
-105.72
-115.74
-126.17
-137.31
-149.36
-162.04
-174.49
-185.22
-192.58
-195.26
-192.77
-185.72
-175.45
-163.62
-151.56
-139.79
-128.05
-115.33
-100.51
-82.65
-61.32
-36.55
-8.87
21.01
52.22
83.79
114.70
143.83
170.15
192.75
211.10
224.97
234.54
240.16
242.30
241.43
237.87
231.85
223.42
212.62
199.62
184.82
168.96
152.86
137.28
122.58
108.69
95.14
81.31
66.70
51.23
35.24
19.52
5.19
-6.45
-14.17
-17.04
-14.74
-7.75
2.74
15.00
27.25
37.98
46.24
51.60
54.10
54.03
51.80
47.82
42.49
36.24
29.48
22.65
16.22
10.64
6.29
3.37
1.91
1.73
2.50
3.76
5.03
5.85
5.83
4.71
2.47
-0.65
-4.18
-7.61
-10.63
-13.23
-15.84
-19.10
-23.71
-30.10
-38.15
-47.13
-55.68
-62.11
-64.69
-62.22
-54.45
-42.22
-27.29
-11.89
1.97
13.02
20.79
25.54
27.76
27.92
26.29
23.05
18.45
12.94
7.10
1.51
-3.51
-7.86
-11.63
-14.89
-17.52
-19.20
-19.63
-18.69
-16.65
-14.17
-12.10
-11.19
-11.85
-14.11
-17.65
-22.09
-27.20
-33.03
-39.92
-48.16
-57.75
-68.00
-77.48
-84.30
-86.60
-83.13
-73.64
-58.97
-40.77
-21.03
-1.67
15.73
30.06
40.67
47.29
50.04
49.34
45.85
40.29
33.39
25.89
18.50
11.98
7.01
4.08
3.30
4.28
6.27
8.30
9.49
9.35
7.79
5.10
1.65
-2.29
-6.68
-11.60
-17.20
-23.61
-30.91
-39.20
-48.46
-58.23
-67.34
-73.95
-75.86
-71.42
-60.16
-43.13
-22.64
-1.47
18.00
34.27
46.76
55.48
60.67
62.54
61.38
57.56
51.66
44.36
36.32
28.11
20.27
13.33
7.82
4.15
2.49
2.58
3.81
5.25
6.06
5.63
3.72
0.45
-3.85
-8.89
-14.49
-20.66
-27.69
-35.98
-45.90
-57.30
-69.30
-80.00
-86.94
-87.69
-80.76
-66.23
-45.78
-22.25
1.29
22.31
39.26
51.52
59.13
62.36
61.62
57.39
50.35
41.41
31.63
22.07
13.69
7.09
2.58
0.08
-0.74
-0.47
0.20
0.62
0.35
-0.81
-2.78
-5.32
-8.24
-11.50
-15.30
-20.07
-26.34
-34.59
-44.92
-56.73
-68.58
-78.15
-82.83
-80.38
-69.84
-51.88
-28.79
-3.71
20.25
40.78
56.64
67.55
73.70
75.42
73.06
67.08
58.23
47.59
36.48
26.18
17.67
11.49
7.72
6.03
5.86
6.52
7.30
7.60
7.03
5.42
2.84
-0.51
-4.49
-9.07
-14.37
-20.66
-28.30
-37.64
-48.85
-61.58
-74.68
-86.06
-92.99
-92.79
-83.78
-65.98
-41.28
-12.96
15.28
40.32
60.14
74.01
82.07
84.98
83.55
78.73
71.47
62.85
53.85
45.26
37.59
31.04
25.63
21.34
18.30
16.77
16.92
18.67
21.39
23.97
25.03
23.50
19.01
12.02
3.67
-4.77
-12.34
-18.83
-24.66
-30.77
-38.18
-47.67
-59.41
-72.70
-85.73
-95.76
-99.75
-95.20
-81.19
-58.85
-31.12
-1.84
25.43
48.26
65.68
77.71
84.82
87.36
85.59
79.86
71.03
60.44
49.74
40.45
33.51
29.16
27.01
26.43
26.78
27.69
28.94
30.45
32.03
33.23
33.43
31.91
28.16
22.08
14.13
5.23
-3.59
-11.50
-18.23
-24.05
-29.66
-35.96
-43.76
-53.60
-65.37
-78.18
-90.15
-98.62
-100.72
-94.32
-78.78
-55.38
-27.03
2.62
30.14
53.14
70.50
82.09
88.33
89.79
87.05
80.84
72.08
61.97
51.78
42.59
35.09
29.50
25.71
23.49
22.67
23.20
24.99
27.81
31.13
34.23
36.34
36.91
35.78
33.06
29.11
24.24
18.62
12.23
5.06
-2.86
-11.21
-19.55
-27.35
-34.16
-39.84
-44.58
-48.89
-53.59
-59.56
-67.39
-77.01
-87.31
-96.02
-100.25
-97.31
-85.69
-65.81
-39.97
-11.70
15.34
38.33
55.80
67.49
73.89
75.72
73.61
68.07
59.73
49.53
38.64
28.39
19.95
14.05
10.87
10.07
10.98
12.82
15.03
17.34
19.69
22.07
24.28
25.81
25.99
24.18
20.12
14.09
6.79
-0.81
-7.91
-14.06
-19.26
-23.82
-28.19
-32.80
-38.09
-44.48
-52.28
-61.37
-70.90
-79.00
-83.22
-81.23
-71.71
-55.00
-33.10
-9.01
14.21
34.25
49.91
60.80
67.03
68.77
66.27
60.04
51.00
40.54
30.15
21.10
14.05
9.07
5.75
3.60
2.30
1.86
2.47
4.26
7.00
10.03
12.40
13.18
11.78
8.22
3.03
-2.98
-9.03
-14.64
-19.72
-24.48
-29.34
-34.86
-41.59
-49.93
-59.76
-70.11
-79.08
-84.12
-82.89
-74.10
-58.09
-36.82
-13.26
9.53
29.18
44.38
54.72
60.34
61.61
59.05
53.36
45.50
36.60
27.84
20.07
13.83
9.21
6.07
4.15
3.24
3.22
4.00
5.39
6.99
8.20
8.36
6.98
3.83
-0.83
-6.43
-12.24
-17.62
-22.32
-26.55
-30.96
-36.40
-43.66
-52.99
-63.85
-74.61
-82.82
-85.70
-81.01
-67.94
-47.50
-22.33
4.08
28.36
48.17
62.50
71.38
75.44
75.36
71.71
65.07
56.24
46.30
36.51
28.00
21.42
16.87
13.96
12.12
10.90
10.18
10.11
10.86
12.30
13.90
14.81
14.10
11.18
6.11
-0.53
-7.74
-14.54
-20.34
-25.04
-29.13
-33.42
-38.82
-46.00
-55.15
-65.69
-76.13
-84.23
-87.48
-83.84
-72.43
-53.92
-30.49
-5.11
19.18
39.98
55.96
66.66
72.32
73.46
70.79
65.12
57.38
48.68
40.10
32.55
26.57
22.28
19.34
17.25
15.57
14.18
13.32
13.39
14.61
16.67
18.72
19.55
18.10
14.04
7.78
0.35
-7.04
-13.60
-19.17
-24.27
-29.69
-36.21
-44.37
-54.27
-65.45
-76.70
-86.12
-91.33
-90.15
-81.34
-65.23
-43.68
-19.61
3.95
24.64
41.13
53.09
60.72
64.41
64.43
61.15
55.17
47.33
38.76
30.51
23.45
18.00
14.16
11.61
10.06
9.30
9.30
10.16
11.81
13.88
15.74
16.54
15.58
12.49
7.40
0.90
-6.13
-12.85
-18.69
-23.51
-27.65
-31.80
-36.72
-43.13
-51.36
-61.08
-71.13
-79.53
-83.81
-81.70
-71.94
-54.82
-32.28
-7.37
16.64
37.16
52.79
63.24
68.96
70.62
68.80
64.01
56.85
48.20
39.15
30.81
24.00
19.11
16.04
14.37
13.71
13.90
15.05
17.35
20.75
24.74
28.33
30.36
29.94
26.86
21.74
15.71
9.97
5.25
1.53
-1.82
-5.67
-10.69
-16.96
-24.02
-31.04
-37.26
-42.16
-45.71
-48.19
-50.19
-52.46
-55.75
-60.66
-67.20
-74.51
-80.73
-83.42
-80.23
-69.93
-52.92
-31.23
-7.90
14.05
32.47
46.35
55.68
60.99
62.82
61.56
57.58
51.37
43.72
35.67
28.36
22.67
19.08
17.57
17.75
19.10
21.15
23.55
26.17
28.86
31.38
33.37
34.33
33.91
31.90
28.47
24.05
19.20
14.44
10.09
6.09
2.16
-2.09
-6.96
-12.54
-18.59
-24.69
-30.25
-34.79
-38.05
-40.11
-41.37
-42.51
-44.32
-47.52
-52.50
-58.94
-65.70
-70.90
-72.35
-68.29
-58.00
-42.12
-22.51
-1.58
18.36
35.69
49.53
59.57
65.75
68.00
66.44
61.51
54.04
45.30
36.64
29.22
23.69
20.14
18.24
17.48
17.38
17.68
18.36
19.45
20.95
22.68
24.24
25.16
25.03
23.65
21.12
17.82
14.14
10.43
6.77
3.04
-0.97
-5.41
-10.31
-15.57
-20.89
-25.99
-30.57
-34.30
-37.01
-38.71
-39.69
-40.51
-41.94
-44.71
-49.24
-55.31
-61.93
-67.33
-69.41
-66.34
-57.27
-42.64
-24.19
-4.40
14.25
29.92
41.68
49.45
53.56
54.49
52.69
48.58
42.73
35.83
28.71
22.06
16.45
12.17
9.36
8.03
8.15
9.60
12.09
15.21
18.42
21.24
23.34
24.52
24.73
23.98
22.36
19.98
17.05
13.79
10.38
6.84
3.10
-0.95
-5.34
-9.92
-14.47
-18.79
-22.84
-26.67
-30.34
-33.74
-36.62
-38.69
-39.83
-40.32
-40.78
-42.14
-45.20
-50.30
-56.99
-63.78
-68.53
-69.02
-63.66
-52.11
-35.58
-16.31
3.06
20.32
34.18
44.22
50.63
53.76
53.95
51.47
46.79
40.55
33.57
26.73
20.71
15.89
12.34
9.90
8.44
7.89
8.35
9.93
12.64
16.14
19.80
22.79
24.30
23.92
21.68
18.08
13.87
9.74
6.11
3.00
0.14
-2.94
-6.62
-11.11
-16.29
-21.82
-27.19
-31.95
-35.85
-38.92
-41.51
-44.19
-47.65
-52.36
-58.38
-65.01
-70.78
-73.68
-71.77
-63.91
-50.19
-32.13
-12.05
7.53
24.67
38.34
48.31
54.85
58.32
58.99
57.09
52.92
46.97
39.86
32.29
24.91
18.27
12.80
8.77
6.24
5.13
5.19
6.12
7.56
9.11
10.48
11.42
11.79
11.53
10.56
8.78
6.03
2.23
-2.55
-8.01
-13.65
-18.98
-23.66
-27.68
-31.38
-35.24
-39.84
-45.60
-52.71
-60.89
-69.25
-76.26
-79.93
-78.40
-70.50
-56.34
-37.31
-15.86
5.33
24.03
38.90
49.56
56.31
59.70
60.26
58.37
54.32
48.53
41.51
33.91
26.41
19.62
13.96
9.65
6.74
5.15
4.71
5.21
6.39
7.97
9.56
10.85
11.53
11.37
10.17
7.91
4.63
0.45
-4.42
-9.77
-15.32
-20.82
-26.07
-30.99
-35.65
-40.42
-45.84
-52.43
-60.39
-69.25
-77.67
-83.64
-84.97
-80.01
-68.35
-50.97
-30.07
-8.32
11.90
28.93
42.08
51.32
56.98
59.48
59.27
56.80
52.54
47.06
40.86
34.46
28.24
22.52
17.54
13.51
10.57
8.79
8.16
8.55
9.72
11.30
12.85
13.84
13.76
12.21
8.98
4.18
-1.78
-8.26
-14.53
-20.09
-24.73
-28.73
-32.63
-37.20
-43.24
-51.28
-61.31
-72.49
-83.06
-90.58
-92.58
-87.32
-74.51
-55.42
-32.55
-8.85
13.16
31.76
46.21
56.38
62.52
64.96
64.11
60.45
54.66
47.54
39.93
32.66
26.38
21.50
18.13
16.12
15.13
14.82
14.95
15.47
16.42
17.76
19.13
19.89
19.24
16.60
11.84
5.43
-1.78
-8.91
-15.34
-20.99
-26.20
-31.57
-37.74
-45.27
-54.46
-65.21
-76.65
-87.07
-94.05
-95.10
-88.48
-73.90
-52.75
-27.68
-1.85
21.96
41.85
56.88
66.90
72.15
73.17
70.59
65.24
58.03
49.95
41.92
34.67
28.68
24.06
20.68
18.22
16.42
15.19
14.62
14.85
15.91
17.52
19.05
19.70
18.79
15.97
11.46
5.85
-0.08
-5.70
-10.73
-15.33
-19.92
-25.15
-31.56
-39.58
-49.26
-60.03
-70.47
-78.45
-81.46
-77.49
-65.72
-47.02
-23.75
0.89
23.88
43.13
57.67
67.49
73.01
74.70
72.87
67.89
60.33
51.15
41.52
32.59
25.14
19.50
15.56
12.99
11.57
11.25
12.16
14.26
17.20
20.20
22.26
22.37
20.01
15.23
8.69
1.37
-5.76
-12.10
-17.47
-22.17
-26.80
-32.08
-38.72
-47.17
-57.34
-68.37
-78.45
-85.03
-85.55
-78.27
-63.06
-41.59
-16.92
7.54
29.00
45.91
57.96
65.55
69.20
69.27
65.96
59.63
51.03
41.33
31.81
23.50
16.86
11.90
8.34
6.00
4.95
5.44
7.54
10.94
14.77
17.79
18.89
17.42
13.41
7.54
0.76
-6.05
-12.37
-18.10
-23.51
-29.12
-35.56
-43.44
-52.94
-63.44
-73.37
-80.29
-81.56
-75.28
-61.02
-40.24
-15.79
8.86
30.70
47.87
59.76
66.67
69.25
68.18
64.00
57.29
48.78
39.40
30.09
21.68
14.64
9.15
5.15
2.57
1.39
1.58
2.98
5.19
7.45
8.94
8.87
6.85
2.97
-2.23
-7.96
-13.50
-18.52
-23.14
-27.98
-33.92
-41.72
-51.61
-62.88
-73.76
-81.65
-83.86
-78.45
-64.94
-44.65
-20.25
4.96
28.02
46.86
60.55
68.99
72.52
71.69
67.15
59.64
50.12
39.62
29.20
19.75
11.95
6.17
2.58
1.06
1.29
2.79
4.86
6.75
7.79
7.56
5.97
3.23
-0.39
-4.59
-9.23
-14.33
-19.97
-26.39
-33.93
-42.99
-53.70
-65.57
-77.09
-85.77
-88.77
-83.84
-70.30
-49.51
-24.38
1.48
24.86
43.69
57.15
65.30
68.70
68.04
64.03
57.47
49.24
40.27
31.44
23.45
16.80
11.83
8.62
7.11
6.98
7.75
8.82
9.60
9.59
8.47
6.08
2.50
-2.08
-7.37
-13.09
-19.07
-25.42
-32.52
-41.01
-51.28
-63.06
-74.96
-84.47
-88.61
-84.86
-72.16
-51.48
-25.55
1.97
27.53
48.57
63.83
73.20
77.26
76.84
72.79
65.93
57.11
47.18
37.05
27.57
19.47
13.26
9.19
7.19
6.92
7.84
9.32
10.74
11.51
11.19
9.44
6.17
1.50
-4.18
-10.36
-16.52
-22.40
-28.22
-34.65
-42.57
-52.43
-63.73
-74.63
-82.28
-83.66
-76.64
-60.92
-38.18
-11.61
15.20
39.17
58.38
72.05
80.19
83.13
81.38
75.54
66.47
55.44
43.94
33.49
25.34
20.15
17.92
18.11
19.82
22.14
24.37
26.13
27.33
28.01
28.17
27.64
26.18
23.46
19.28
13.65
6.80
-0.83
-8.76
-16.50
-23.71
-30.24
-36.16
-41.83
-47.79
-54.74
-63.22
-73.16
-83.58
-92.43
-96.96
-94.57
-83.73
-64.68
-39.43
-11.24
16.41
40.74
60.11
73.95
82.44
85.96
84.98
80.03
71.95
61.93
51.39
41.75
34.05
28.87
26.20
25.71
26.93
29.43
32.84
36.88
41.16
45.20
48.45
50.39
50.74
49.48
46.85
43.26
39.15
34.85
30.56
26.34
22.16
18.01
13.87
9.69
5.43
0.98
-3.68
-8.42
-12.94
-16.86
-19.92
-22.10
-23.77
-25.53
-27.96
-31.39
-35.72
-40.55
-45.30
-49.55
-53.09
-56.02
-58.65
-61.45
-65.07
-70.22
-77.46
-86.76
-97.09
-106.11
-110.66
-107.67
-95.31
-73.87
-45.86
-15.24
13.90
38.44
56.90
69.31
76.50
79.45
78.83
75.03
68.46
59.86
50.31
41.09
33.36
27.81
24.59
23.44
23.92
25.60
28.19
31.36
34.68
37.57
39.46
40.00
39.14
37.20
34.57
31.58
28.33
24.71
20.57
15.83
10.58
5.06
-0.43
-5.65
-10.50
-15.08
-19.58
-24.24
-29.22
-34.44
-39.60
-44.21
-47.93
-50.59
-52.45
-54.15
-56.56
-60.49
-66.39
-73.99
-82.05
-88.42
-90.50
-86.04
-73.93
-54.74
-30.66
-4.88
19.39
39.80
55.10
65.21
70.57
71.82
69.55
64.34
56.94
48.33
39.58
31.71
25.37
20.83
17.96
16.52
16.26
17.12
19.12
22.26
26.22
30.35
33.71
35.31
34.54
31.36
26.31
20.36
14.43
9.07
4.28
-0.37
-5.46
-11.36
-18.03
-25.06
-31.81
-37.77
-42.73
-46.81
-50.38
-54.01
-58.39
-64.16
-71.62
-80.27
-88.65
-94.34
-94.61
-87.44
-72.31
-50.58
-25.12
0.63
23.64
41.98
54.95
62.78
66.14
65.78
62.42
56.72
49.36
41.12
32.82
25.23
18.99
14.52
11.93
11.11
11.83
13.72
16.42
19.47
22.33
24.47
25.50
25.28
23.90
21.62
18.64
15.02
10.65
5.39
-0.79
-7.72
-15.03
-22.30
-29.17
-35.54
-41.48
-47.33
-53.56
-60.75
-69.27
-78.98
-88.82
-96.75
-100.20
-96.76
-85.20
-66.04
-41.51
-14.92
10.37
31.89
48.37
59.71
66.48
69.47
69.33
66.61
61.78
55.33
47.82
39.91
32.22
25.42
19.97
16.09
13.77
12.77
12.77
13.47
14.69
16.24
17.89
19.22
19.68
18.70
15.90
11.23
5.04
-2.03
-9.29
-16.21
-22.55
-28.35
-33.93
-39.72
-46.18
-53.84
-63.05
-73.74
-85.02
-95.04
-101.17
-100.76
-92.02
-74.89
-51.13
-23.93
3.17
27.20
46.47
60.49
69.55
74.21
75.00
72.39
66.98
59.64
51.41
43.25
35.89
29.65
24.55
20.45
17.24
14.93
13.59
13.29
13.95
15.36
17.04
18.42
18.87
17.80
14.91
10.19
4.03
-2.96
-10.02
-16.62
-22.47
-27.68
-32.63
-37.90
-44.13
-51.92
-61.46
-72.25
-82.86
-90.94
-93.76
-89.10
-76.11
-55.72
-30.55
-3.99
20.79
41.61
57.39
68.05
73.87
75.24
72.65
66.73
58.49
49.16
39.93
31.63
24.66
19.03
14.56
11.15
8.87
7.86
8.21
9.83
12.33
15.12
17.39
18.41
17.57
14.60
9.71
3.51
-3.12
-9.34
-14.62
-18.97
-22.92
-27.27
-33.01
-40.85
-50.99
-62.80
-74.69
-84.21
-88.65
-85.80
-74.72
-56.16
-32.41
-6.63
18.04
39.18
55.43
66.32
72.02
73.06
70.08
63.87
55.36
45.61
35.64
26.32
18.23
11.60
6.47
2.76
0.50
-0.25
0.57
2.87
6.14
9.52
11.98
12.60
10.93
7.11
1.78
-4.20
-10.09
-15.56
-20.72
-26.03
-32.15
-39.67
-48.86
-59.25
-69.47
-77.31
-80.14
-75.81
-63.48
-44.11
-20.29
4.53
27.12
45.27
58.07
65.67
68.67
67.80
63.64
56.76
47.88
37.92
27.87
18.59
10.68
4.34
-0.42
-3.71
-5.58
-6.03
-5.12
-3.13
-0.64
1.48
2.37
1.47
-1.28
-5.44
-10.27
-15.14
-19.76
-24.41
-29.74
-36.49
-45.15
-55.49
-66.33
-75.55
-80.53
-78.84
-69.15
-51.83
-28.96
-3.79
20.25
40.52
55.63
65.36
70.20
70.83
67.81
61.67
53.08
42.95
32.45
22.64
14.32
7.89
3.35
0.49
-0.97
-1.32
-0.88
-0.11
0.45
0.29
-0.95
-3.29
-6.45
-10.05
-13.78
-17.55
-21.60
-26.34
-32.37
-40.17
-49.85
-60.81
-71.43
-79.19
-81.29
-75.57
-61.40
-40.15
-14.81
10.95
33.88
51.92
64.33
71.38
73.71
72.05
67.06
59.49
50.23
40.31
30.73
22.28
15.41
10.27
6.83
4.95
4.46
5.08
6.35
7.68
8.33
7.74
5.67
2.29
-1.92
-6.33
-10.46
-14.13
-17.55
-21.34
-26.43
-33.70
-43.52
-55.30
-67.10
-75.98
-78.77
-73.17
-58.74
-37.08
-11.38
14.70
38.05
56.78
70.14
78.25
81.49
80.37
75.50
67.69
58.01
47.68
37.81
29.29
22.68
18.19
15.76
15.09
15.67
16.96
18.39
19.60
20.33
20.46
19.97
18.82
16.91
14.14
10.45
5.82
0.32
-5.85
-12.42
-19.06
-25.47
-31.53
-37.30
-43.04
-49.09
-55.85
-63.68
-72.67
-82.43
-91.74
-98.54
-100.28
-94.61
-80.42
-58.44
-31.24
-2.49
24.20
46.27
62.61
73.29
78.98
80.35
77.86
72.00
63.45
53.40
43.25
34.36
27.64
23.39
21.32
20.88
21.58
23.12
25.42
28.42
31.91
35.31
37.77
38.50
36.98
33.31
28.06
22.17
16.47
11.44
7.05
2.84
-1.81
-7.39
-13.96
-21.13
-28.16
-34.26
-38.85
-41.87
-43.74
-45.32
-47.62
-51.56
-57.64
-65.61
-74.31
-81.69
-85.16
-82.26
-71.56
-53.28
-29.40
-3.17
21.95
43.27
59.42
70.23
76.28
78.18
76.32
70.93
62.49
51.97
40.82
30.63
22.68
17.58
15.21
15.03
16.31
18.48
21.15
24.09
27.04
29.69
31.66
32.66
32.47
31.10
28.70
25.49
21.69
17.46
13.02
8.53
4.11
-0.17
-4.42
-8.85
-13.72
-19.19
-25.14
-31.17
-36.73
-41.23
-44.40
-46.37
-47.70
-49.20
-51.76
-56.07
-62.35
-70.12
-78.02
-83.95
-85.47
-80.49
-68.08
-48.92
-25.23
-0.21
22.95
41.90
55.58
64.08
68.16
68.67
66.23
61.27
54.19
45.69
36.75
28.45
21.71
16.99
14.29
13.24
13.45
14.56
16.53
19.28
22.69
26.37
29.67
31.82
32.15
30.37
26.65
21.59
16.03
10.71
6.04
1.92
-2.17
-6.84
-12.49
-19.10
-26.13
-32.79
-38.36
-42.42
-45.07
-46.80
-48.34
-50.47
-53.95
-59.24
-66.29
-74.26
-81.29
-84.90
-82.62
-72.92
-55.93
-33.55
-8.85
14.95
35.36
51.07
61.88
68.17
70.48
69.28
65.10
58.57
50.52
41.91
33.59
26.22
20.21
15.70
12.69
11.10
10.84
11.83
14.01
17.19
20.97
24.70
27.61
28.88
28.07
25.19
20.73
15.53
10.41
5.90
2.07
-1.41
-5.13
-9.63
-15.13
-21.44
-28.01
-34.22
-39.55
-43.87
-47.34
-50.45
-53.84
-58.12
-63.75
-70.69
-78.20
-84.67
-87.94
-85.81
-76.79
-60.80
-39.31
-14.98
9.15
30.43
47.22
58.91
65.76
68.43
67.67
64.14
58.44
51.15
42.97
34.64
26.90
20.38
15.51
12.38
10.81
10.48
11.02
12.13
13.62
15.27
16.81
17.91
18.18
17.31
15.16
11.73
7.19
1.75
-4.39
-11.00
-17.86
-24.65
-31.06
-36.82
-41.87
-46.48
-51.18
-56.71
-63.64
-71.96
-80.76
-88.15
-91.66
-88.95
-78.70
-61.15
-38.13
-12.57
12.37
34.14
51.22
63.11
70.10
72.75
71.72
67.62
61.16
53.07
44.19
35.31
27.13
20.20
14.83
11.15
9.10
8.44
8.86
9.99
11.49
13.02
14.34
15.13
15.06
13.79
11.04
6.65
0.73
-6.28
-13.80
-21.11
-27.70
-33.38
-38.30
-42.97
-48.11
-54.43
-62.52
-72.50
-83.70
-94.54
-102.61
-105.18
-100.03
-86.40
-65.34
-39.48
-12.26
13.09
34.34
50.55
61.70
68.27
70.74
69.55
65.12
58.02
49.16
39.58
30.46
22.76
17.12
13.64
12.04
11.76
12.26
13.21
14.54
16.36
18.73
21.39
23.70
24.74
23.60
19.73
13.23
4.84
-4.33
-13.16
-20.91
-27.50
-33.31
-39.02
-45.36
-52.94
-62.15
-73.02
-84.93
-96.27
-104.52
-106.77
-100.66
-85.43
-62.37
-34.56
-5.85
20.30
41.64
57.40
67.81
73.59
75.42
73.83
69.31
62.43
53.94
44.74
35.82
28.02
21.93
17.83
15.61
14.93
15.33
16.43
18.05
20.11
22.42
24.50
25.63
24.95
21.81
16.12
8.37
-0.44
-9.22
-17.15
-23.95
-29.89
-35.66
-42.04
-49.76
-59.27
-70.50
-82.58
-93.70
-101.29
-102.58
-95.54
-79.72
-56.51
-28.86
-0.38
25.78
47.47
63.81
74.74
80.64
81.94
79.18
73.08
64.65
55.09
45.55
36.95
29.78
24.15
19.95
16.94
15.03
14.26
14.83
16.84
20.13
24.08
27.59
29.42
28.58
24.64
17.95
9.53
0.62
-7.76
-15.03
-21.32
-27.14
-33.34
-40.73
-50.02
-61.32
-74.00
-86.34
-95.76
-99.36
-94.80
-81.25
-59.74
-32.95
-4.43
22.39
44.97
61.95
73.02
78.46
78.91
75.19
68.27
59.32
49.59
40.15
31.77
24.83
19.40
15.37
12.64
11.26
11.38
13.12
16.35
20.49
24.52
27.13
27.23
24.23
18.37
10.55
2.06
-6.02
-13.15
-19.43
-25.49
-32.19
-40.43
-50.76
-63.12
-76.39
-88.33
-95.89
-95.99
-86.76
-68.26
-42.72
-13.85
14.41
39.01
58.33
72.05
80.51
84.14
83.27
78.31
70.03
59.66
48.67
38.32
29.36
22.03
16.13
11.47
8.09
6.24
6.15
7.80
10.55
13.37
15.00
14.41
11.15
5.47
-1.82
-9.75
-17.36
-24.08
-29.80
-34.89
-40.17
-46.69
-55.32
-66.27
-78.54
-89.81
-96.84
-96.47
-86.82
-68.08
-42.53
-13.83
14.19
38.59
57.78
71.35
79.55
82.76
81.34
75.75
66.86
55.98
44.70
34.55
26.51
20.95
17.55
15.64
14.57
13.95
13.75
14.20
15.52
17.54
19.62
20.69
19.62
15.70
9.10
0.71
-8.06
-15.93
-22.32
-27.40
-32.08
-37.48
-44.67
-54.23
-66.05
-79.00
-90.82
-98.44
-98.69
-89.47
-70.61
-44.18
-13.89
16.06
42.31
62.99
77.67
86.79
90.92
90.51
85.85
77.54
66.60
54.49
42.73
32.55
24.71
19.35
16.19
14.76
14.54
15.17
16.42
18.16
20.24
22.34
23.96
24.39
22.95
19.21
13.26
5.77
-2.24
-9.78
-16.22
-21.63
-26.56
-31.85
-38.26
-46.22
-55.87
-66.95
-78.67
-89.45
-96.98
-98.49
-91.73
-75.84
-52.00
-23.29
6.29
33.02
54.51
69.92
79.57
84.23
84.55
80.93
73.86
64.18
53.18
42.35
32.96
25.81
21.15
18.81
18.49
19.77
22.27
25.46
28.72
31.39
32.82
32.61
30.66
27.24
22.77
17.72
12.40
6.85
0.96
-5.47
-12.49
-19.97
-27.52
-34.68
-41.10
-46.68
-51.60
-56.38
-61.79
-68.56
-77.05
-86.82
-96.18
-102.47
-102.68
-94.50
-77.31
-52.62
-23.60
5.79
32.12
53.18
68.23
77.54
81.84
81.82
78.13
71.42
62.65
52.98
43.64
35.59
29.38
25.07
22.44
21.23
21.36
22.79
25.45
28.97
32.63
35.46
36.60
35.63
32.73
28.54
23.82
19.06
14.27
9.06
2.88
-4.55
-13.07
-22.08
-30.80
-38.62
-45.36
-51.34
-57.29
-64.11
-72.55
-82.85
-94.33
-105.24
-112.93
-114.48
-107.64
-91.82
-68.36
-40.33
-11.53
14.69
36.20
52.32
63.30
69.79
72.30
71.15
66.67
59.48
50.62
41.36
33.00
26.46
22.15
19.90
19.16
19.26
19.70
20.26
20.98
22.02
23.34
24.65
25.32
24.64
22.08
17.58
11.53
4.64
-2.34
-8.94
-15.03
-20.78
-26.46
-32.38
-38.76
-45.93
-54.24
-63.91
-74.57
-84.86
-92.37
-94.24
-88.11
-73.19
-50.74
-23.78
3.91
29.02
49.44
64.55
74.59
80.09
81.45
78.92
72.89
64.18
54.04
43.92
35.03
28.05
23.04
19.62
17.25
15.58
14.54
14.30
15.03
16.67
18.73
20.40
20.69
18.73
14.14
7.19
-1.23
-9.97
-17.98
-24.71
-30.29
-35.32
-40.71
-47.32
-55.73
-66.09
-77.83
-89.57
-99.07
-103.67
-100.92
-89.51
-69.83
-44.05
-15.59
11.95
35.75
54.25
67.16
74.96
78.31
77.80
73.91
67.20
58.52
49.01
39.82
31.82
25.36
20.34
16.36
13.10
10.56
8.99
8.75
9.96
12.24
14.73
16.33
16.00
13.21
8.12
1.51
-5.53
-12.03
-17.53
-22.16
-26.54
-31.51
-37.82
-45.91
-55.81
-67.02
-78.27
-87.54
-92.33
-90.26
-79.96
-61.73
-37.64
-11.01
14.66
36.65
53.55
65.15
71.92
74.44
73.14
68.35
60.55
50.64
39.87
29.56
20.75
13.97
9.15
5.91
3.78
2.56
2.26
3.05
4.90
7.42
9.81
11.03
10.23
7.12
2.04
-4.10
-10.23
-15.52
-19.78
-23.37
-27.08
-31.78
-38.16
-46.50
-56.47
-66.98
-76.12
-81.44
-80.62
-72.19
-56.20
-34.39
-9.73
14.56
35.78
52.36
63.76
70.10
71.77
69.24
63.19
54.59
44.72
34.93
26.28
19.28
13.87
9.67
6.24
3.45
1.43
0.53
0.99
2.69
5.10
7.33
8.33
7.34
4.16
-0.78
-6.65
-12.44
-17.48
-21.59
-25.16
-28.95
-33.85
-40.60
-49.48
-59.98
-70.67
-79.25
-83.10
-80.00
-69.04
-51.05
-28.41
-4.26
18.39
37.44
51.90
61.52
66.56
67.30
64.10
57.53
48.54
38.32
28.10
18.84
10.99
4.67
-0.28
-3.98
-6.38
-7.32
-6.75
-4.84
-2.14
0.52
2.21
2.27
0.41
-3.11
-7.67
-12.56
-17.23
-21.58
-25.96
-30.97
-37.34
-45.56
-55.55
-66.48
-76.58
-83.44
-84.49
-77.92
-63.37
-42.27
-17.48
7.58
29.94
47.76
60.45
68.26
71.69
71.19
67.12
60.08
51.03
41.24
31.91
23.85
17.31
12.11
7.96
4.74
2.64
1.95
2.76
4.72
6.98
8.42
8.02
5.28
0.37
-5.93
-12.58
-18.75
-24.01
-28.59
-33.20
-38.83
-46.36
-56.19
-67.71
-79.21
-87.99
-91.03
-85.99
-72.09
-50.59
-24.37
2.83
27.65
47.90
62.70
72.25
77.10
77.74
74.51
67.85
58.52
47.69
36.70
26.66
18.16
11.26
5.74
1.51
-1.26
-2.19
-1.09
1.73
5.32
8.42
9.89
9.10
6.15
1.61
-3.73
-9.22
-14.52
-19.65
-24.97
-31.12
-38.88
-48.82
-60.82
-73.58
-84.61
-90.74
-89.11
-78.32
-58.98
-33.63
-5.92
20.53
43.02
60.12
71.52
77.56
78.82
75.94
69.67
60.98
51.01
40.97
31.87
24.29
18.36
13.82
10.34
7.67
5.89
5.29
6.13
8.30
11.19
13.77
14.86
13.65
9.93
4.15
-2.84
-10.09
-16.92
-23.15
-29.03
-35.26
-42.70
-52.15
-63.86
-77.07
-89.80
-99.00
-101.42
-94.68
-78.28
-53.98
-25.25
3.86
29.89
50.87
66.26
76.52
82.32
84.16
82.25
76.84
68.47
58.16
47.19
36.85
28.15
21.68
17.58
15.65
15.48
16.58
18.45
20.70
22.93
24.84
26.05
26.20
24.94
21.98
17.28
10.96
3.37
-4.98
-13.59
-22.02
-29.99
-37.35
-44.19
-50.85
-57.99
-66.41
-76.63
-88.29
-99.77
-108.25
-110.42
-103.76
-87.45
-62.91
-33.29
-2.50
25.98
49.90
68.27
81.02
88.44
90.93
88.93
83.03
74.11
63.33
52.02
41.42
32.53
25.83
21.38
18.82
17.59
17.27
17.61
18.60
20.25
22.40
24.56
25.99
25.91
23.75
19.41
13.16
5.61
-2.52
-10.60
-18.25
-25.32
-31.86
-38.17
-44.65
-51.93
-60.61
-70.93
-82.39
-93.41
-101.43
-103.51
-97.27
-81.87
-58.47
-29.95
-0.09
27.58
50.60
67.82
79.19
85.24
86.65
84.05
78.07
69.50
59.34
48.73
38.74
30.29
23.96
19.95
18.02
17.62
18.05
18.73
19.34
19.85
20.39
21.00
21.43
21.14
19.46
15.86
10.23
2.90
-5.46
-14.12
-22.48
-30.20
-37.22
-43.67
-49.85
-56.20
-63.30
-71.71
-81.57
-92.22
-101.82
-107.58
-106.52
-96.50
-77.32
-50.88
-20.72
9.19
35.59
56.70
72.10
82.16
87.42
88.20
84.74
77.54
67.57
56.19
44.88
34.84
26.78
20.91
17.06
14.93
14.20
14.55
15.70
17.42
19.41
21.40
23.03
23.87
23.40
21.16
16.90
10.77
3.34
-4.61
-12.30
-19.24
-25.39
-31.07
-36.82
-43.26
-50.94
-60.13
-70.71
-81.73
-91.41
-97.17
-96.37
-87.20
-69.49
-45.07
-17.24
10.23
34.26
53.11
66.43
74.75
78.75
78.85
75.15
67.91
57.82
46.14
34.45
24.16
16.21
10.77
7.52
5.92
5.59
6.36
8.24
11.18
14.87
18.57
21.33
22.18
20.46
16.11
9.66
2.14
-5.33
-11.85
-17.14
-21.56
-25.89
-31.08
-37.90
-46.81
-57.79
-70.08
-82.10
-91.42
-95.24
-91.15
-78.12
-56.99
-30.41
-1.97
24.78
47.30
64.37
75.79
81.93
83.26
80.25
73.48
63.84
52.58
41.08
30.58
21.89
15.25
10.43
6.98
4.54
3.09
2.84
4.00
6.48
9.69
12.58
14.01
13.22
10.04
4.99
-1.02
-7.04
-12.49
-17.24
-21.61
-26.17
-31.61
-38.52
-47.16
-57.21
-67.55
-76.14
-80.43
-78.08
-67.89
-50.34
-27.60
-2.88
20.58
40.33
55.11
64.70
69.46
69.90
66.54
59.97
51.03
40.84
30.56
21.18
13.20
6.68
1.43
-2.71
-5.61
-6.88
-6.10
-3.31
0.92
5.38
8.65
9.63
7.95
4.04
-1.10
-6.37
-11.02
-14.88
-18.37
-22.26
-27.44
-34.63
-44.11
-55.48
-67.41
-77.62
-83.33
-81.99
-72.19
-54.36
-30.77
-4.86
19.77
40.39
55.60
65.23
69.80
70.00
66.43
59.62
50.26
39.35
28.10
17.64
8.80
2.01
-2.75
-5.61
-6.77
-6.38
-4.70
-2.20
0.34
2.01
2.06
0.15
-3.44
-7.98
-12.66
-16.90
-20.63
-24.30
-28.71
-34.76
-43.06
-53.60
-65.30
-76.06
-82.96
-83.14
-74.79
-57.96
-34.66
-8.37
17.14
38.81
54.95
65.30
70.42
71.21
68.48
62.89
55.02
45.56
35.34
25.19
15.94
8.31
2.74
-0.56
-1.69
-1.09
0.56
2.42
3.67
3.73
2.33
-0.49
-4.43
-9.15
-14.31
-19.72
-25.37
-31.45
-38.43
-46.82
-57.03
-68.70
-80.41
-89.58
-93.04
-88.17
-73.89
-51.38
-23.77
4.78
30.44
50.66
64.51
72.35
75.16
73.95
69.49
62.38
53.23
42.85
32.20
22.33
14.09
8.05
4.34
2.63
2.36
2.78
3.28
3.32
2.63
1.09
-1.30
-4.46
-8.33
-12.83
-17.94
-23.75
-30.42
-38.29
-47.84
-59.30
-72.21
-84.95
-94.77
-98.42
-93.25
-78.34
-55.03
-26.63
2.70
29.23
50.58
65.89
75.36
79.60
79.29
75.02
67.59
58.05
47.61
37.42
28.28
20.67
14.74
10.63
8.43
8.14
9.57
12.10
14.79
16.52
16.34
13.73
8.83
2.29
-4.97
-12.16
-18.90
-25.37
-32.21
-40.36
-50.64
-63.26
-77.39
-90.93
-100.81
-103.72
-97.21
-80.65
-55.67
-25.66
5.23
33.29
56.15
72.86
83.48
88.50
88.49
84.09
76.19
66.06
55.13
44.65
35.41
27.68
21.41
16.56
13.20
11.53
11.64
13.30
15.85
18.29
19.59
18.94
15.99
10.92
4.31
-2.99
-10.18
-16.75
-22.63
-28.35
-34.87
-43.31
-54.52
-68.33
-83.23
-96.27
-103.76
-102.40
-90.54
-68.86
-40.20
-8.68
21.64
47.80
68.22
82.49
90.80
93.47
90.87
83.71
73.15
60.84
48.54
37.73
29.23
23.13
19.02
16.33
14.75
14.23
15.00
17.13
20.32
23.69
26.06
26.27
23.58
17.94
9.99
0.85
-8.30
-16.56
-23.63
-29.83
-36.05
-43.45
-53.04
-65.26
-79.42
-93.48
-104.36
-108.63
-103.61
-88.39
-64.27
-34.36
-2.75
26.79
51.61
70.43
83.08
89.95
91.61
88.66
81.91
72.48
61.80
51.39
42.51
35.94
31.86
29.91
29.40
29.59
29.92
30.17
30.43
30.88
31.53
31.94
31.33
28.77
23.65
15.95
6.42
-3.75
-13.35
-21.60
-28.43
-34.35
-40.20
-46.87
-55.06
-65.09
-76.65
-88.54
-98.60
-104.02
-102.05
-90.99
-71.01
-44.25
-14.31
14.92
40.30
60.11
73.94
82.21
85.50
84.24
78.82
69.87
58.51
46.31
34.97
25.84
19.65
16.28
15.11
15.28
16.12
17.33
18.86
20.81
22.99
24.87
25.58
24.24
20.27
13.76
5.44
-3.54
-11.97
-19.08
-24.84
-29.79
-34.91
-41.24
-49.60
-60.27
-72.67
-85.16
-95.09
-99.30
-95.10
-81.26
-58.74
-30.43
-0.39
27.52
50.61
67.77
79.12
85.30
86.89
84.19
77.48
67.40
55.15
42.35
30.69
21.46
15.28
12.03
11.06
11.58
12.89
14.62
16.63
18.88
21.21
23.20
24.27
23.78
21.24
16.55
10.02
2.34
-5.71
-13.44
-20.53
-26.98
-33.04
-39.05
-45.38
-52.32
-60.15
-69.08
-78.82
-88.42
-95.91
-98.76
-94.54
-81.94
-61.46
-35.39
-7.21
19.50
42.00
58.87
69.95
75.79
77.20
74.91
69.56
61.86
52.69
43.11
34.17
26.76
21.43
18.32
17.30
18.01
20.04
22.89
26.03
28.92
31.04
32.02
31.63
29.82
26.60
22.08
16.40
9.81
2.65
-4.69
-11.82
-18.52
-24.68
-30.35
-35.59
-40.58
-45.57
-51.03
-57.52
-65.38
-74.29
-82.92
-88.98
-89.80
-83.27
-68.72
-47.35
-21.95
4.02
27.37
46.06
59.31
67.28
70.58
69.89
65.76
58.85
49.98
40.25
30.85
22.78
16.62
12.49
10.19
9.37
9.81
11.37
13.88
17.08
20.45
23.28
24.94
24.99
23.42
20.57
16.94
12.97
8.90
4.68
0.04
-5.25
-11.28
-17.83
-24.38
-30.28
-35.10
-38.75
-41.67
-44.79
-49.16
-55.64
-64.34
-74.24
-83.20
-88.39
-87.07
-77.60
-60.21
-36.92
-11.11
13.68
34.75
50.78
61.71
68.12
70.61
69.44
64.75
56.90
46.77
35.81
25.62
17.45
11.84
8.63
7.15
6.64
6.59
6.80
7.30
8.18
9.42
10.79
11.93
12.37
11.63
9.39
5.62
0.64
-4.96
-10.44
-15.20
-19.09
-22.42
-25.92
-30.46
-36.83
-45.53
-56.47
-68.80
-80.72
-89.72
-93.09
-88.83
-76.44
-57.20
-33.87
-9.70
12.45
30.83
44.83
54.50
60.15
61.94
59.98
54.55
46.38
36.62
26.59
17.50
10.11
4.66
0.93
-1.53
-3.12
-3.90
-3.68
-2.21
0.50
3.88
6.86
8.15
6.83
2.76
-3.31
-10.08
-16.30
-21.30
-25.26
-28.95
-33.38
-39.38
-47.44
-57.46
-68.62
-79.31
-87.14
-89.56
-84.49
-71.30
-51.12
-26.62
-1.17
22.12
41.15
55.00
63.64
67.60
67.52
64.12
58.15
50.44
41.83
33.07
24.72
17.18
10.69
5.41
1.52
-0.76
-1.29
-0.14
2.30
5.30
7.84
8.93
7.94
4.77
-0.13
-5.99
-12.02
-17.63
-22.65
-27.29
-32.14
-37.98
-45.61
-55.36
-66.64
-77.75
-85.93
-88.26
-82.57
-68.43
-47.27
-22.06
3.72
27.06
46.06
59.96
68.80
72.98
72.98
69.35
62.78
54.21
44.65
34.93
25.64
17.08
9.45
3.03
-1.72
-4.34
-4.59
-2.72
0.46
3.81
6.15
6.65
5.01
1.49
-3.31
-8.66
-13.94
-18.84
-23.49
-28.42
-34.56
-42.79
-53.48
-66.01
-78.33
-87.51
-90.36
-84.63
-69.88
-47.81
-21.65
4.81
28.39
47.16
60.59
69.02
73.12
73.44
70.39
64.47
56.45
47.40
38.44
30.51
24.01
18.82
14.50
10.68
7.39
5.05
4.28
5.33
7.79
10.56
12.16
11.40
7.87
2.07
-4.81
-11.46
-17.03
-21.39
-25.09
-29.20
-34.91
-43.24
-54.62
-68.47
-82.86
-94.77
-100.68
-97.76
-84.93
-63.38
-36.25
-7.55
19.12
41.46
58.62
70.78
78.38
81.73
80.98
76.35
68.53
58.69
48.21
38.39
30.05
23.38
18.17
14.05
10.82
8.62
7.80
8.67
11.14
14.50
17.50
18.77
17.34
12.98
6.35
-1.34
-8.82
-15.32
-20.73
-25.50
-30.47
-36.47
-44.24
-54.17
-66.02
-78.66
-89.79
-96.34
-95.38
-85.09
-65.76
-39.80
-11.03
16.60
40.22
58.48
71.36
79.46
83.27
83.06
78.99
71.55
61.72
50.91
40.52
31.58
24.58
19.44
15.86
13.53
12.34
12.35
13.61
15.87
18.48
20.43
20.60
18.14
12.86
5.28
-3.55
-12.44
-20.50
-27.45
-33.58
-39.61
-46.41
-54.71
-64.81
-76.24
-87.50
-96.14
-99.32
-94.64
-81.14
-59.83
-33.48
-5.76
19.95
41.41
57.77
69.21
76.22
79.14
78.05
73.15
65.01
54.80
44.03
34.08
25.83
19.46
14.70
11.18
8.80
7.76
8.31
10.38
13.31
15.94
17.00
15.63
11.65
5.66
-1.35
-8.31
-14.43
-19.42
-23.49
-27.22
-31.56
-37.52
-45.85
-56.52
-68.27
-78.60
-84.26
-82.34
-71.43
-52.23
-27.47
-0.96
23.63
43.87
58.83
68.81
74.53
76.55
75.13
70.36
62.72
53.16
43.07
33.86
26.51
21.34
18.04
16.06
14.86
14.37
14.71
16.09
18.34
20.73
22.15
21.48
18.10
12.16
4.59
-3.41
-10.73
-16.91
-22.11
-27.01
-32.44
-39.07
-47.34
-57.16
-67.96
-78.33
-86.12
-88.80
-84.21
-71.40
-51.26
-26.31
0.01
24.45
44.85
60.34
70.98
77.16
79.09
76.83
70.64
61.31
50.21
39.03
29.19
21.50
15.99
12.18
9.46
7.46
6.21
6.01
7.12
9.47
12.47
15.08
16.16
14.80
10.75
4.49
-2.96
-10.43
-17.05
-22.48
-27.00
-31.29
-36.29
-42.88
-51.62
-62.36
-73.85
-83.78
-89.19
-87.40
-77.05
-58.74
-34.92
-9.06
15.45
36.26
52.35
63.64
70.48
73.17
71.88
66.89
58.89
48.99
38.59
28.95
20.86
14.58
10.00
6.78
4.70
3.68
3.78
4.99
7.16
9.84
12.34
13.83
13.56
11.10
6.54
0.43
-6.32
-12.75
-18.27
-22.79
-26.81
-31.22
-36.97
-44.77
-54.72
-66.16
-77.44
-86.20
-89.79
-86.07
-74.17
-54.83
-30.39
-4.11
20.76
41.75
57.64
68.21
73.91
75.24
72.67
66.66
57.94
47.67
37.25
28.02
20.87
15.96
12.78
10.63
8.90
7.44
6.53
6.53
7.59
9.40
11.20
12.01
11.08
8.11
3.47
-2.11
-7.78
-12.99
-17.63
-22.06
-26.93
-32.93
-40.64
-50.24
-61.27
-72.50
-81.86
-86.87
-85.24
-75.77
-58.79
-36.26
-11.19
13.21
34.37
50.76
61.90
68.00
69.59
67.29
61.77
53.88
44.68
35.26
26.55
19.16
13.29
8.81
5.49
3.22
2.09
2.24
3.68
6.00
8.43
9.95
9.75
7.47
3.35
-1.89
-7.44
-12.71
-17.53
-22.10
-26.99
-32.82
-40.14
-49.17
-59.42
-69.60
-77.56
-80.77
-77.11
-65.69
-47.35
-24.47
-0.27
22.16
40.70
54.40
63.23
67.53
67.62
63.83
56.70
47.20
36.67
26.58
18.00
11.45
6.80
3.64
1.61
0.59
0.68
1.86
3.82
5.82
6.93
6.37
3.90
-0.20
-5.22
-10.35
-15.06
-19.24
-23.23
-27.63
-33.20
-40.47
-49.50
-59.58
-69.02
-75.45
-76.40
-70.16
-56.43
-36.66
-13.57
9.59
30.07
46.08
57.03
63.08
64.78
62.78
57.68
50.16
41.07
31.36
21.99
13.70
6.99
2.10
-1.00
-2.45
-2.55
-1.74
-0.53
0.48
0.78
0.05
-1.80
-4.60
-7.99
-11.69
-15.56
-19.69
-24.44
-30.29
-37.72
-46.99
-57.75
-68.81
-78.11
-83.13
-81.55
-72.14
-55.26
-32.93
-8.25
15.52
35.80
51.20
61.35
66.53
67.19
63.76
56.69
46.75
35.08
23.10
12.23
3.57
-2.35
-5.58
-6.52
-5.75
-3.90
-1.58
0.55
1.88
1.89
0.44
-2.37
-6.04
-10.09
-14.21
-18.42
-23.16
-29.11
-37.00
-47.13
-59.02
-71.04
-80.63
-84.84
-81.33
-69.19
-49.39
-24.57
1.79
26.36
46.73
61.70
71.10
75.29
74.89
70.56
63.14
53.62
43.22
33.09
24.19
17.08
11.94
8.72
7.27
7.43
9.01
11.65
14.68
17.24
18.39
17.44
14.17
8.93
2.50
-4.19
-10.43
-16.00
-21.26
-27.00
-34.24
-43.77
-55.69
-69.02
-81.57
-90.34
-92.27
-85.26
-69.01
-45.32
-17.53
10.45
35.29
54.96
68.81
77.14
80.62
79.81
75.31
67.73
58.02
47.48
37.45
29.12
23.16
19.66
18.24
18.30
19.24
20.76
22.75
25.18
27.78
29.94
30.76
29.24
24.84
17.71
8.68
-0.98
-10.09
-17.95
-24.52
-30.33
-36.20
-43.00
-51.43
-61.79
-73.67
-85.71
-95.53
-100.18
-97.06
-84.87
-64.27
-37.79
-9.05
18.31
41.62
59.54
71.87
79.05
81.66
80.25
75.42
67.91
58.77
49.20
40.37
33.22
28.30
25.73
25.25
26.36
28.37
30.66
32.68
34.04
34.55
34.11
32.70
30.30
26.86
22.29
16.60
9.90
2.54
-5.08
-12.51
-19.43
-25.73
-31.44
-36.80
-42.16
-48.06
-55.15
-63.96
-74.39
-85.34
-94.48
-98.77
-95.39
-82.94
-62.09
-35.50
-7.01
19.65
41.86
58.45
69.51
75.73
77.81
76.34
71.81
64.91
56.62
48.08
40.34
34.14
29.83
27.35
26.39
26.51
27.25
28.21
29.09
29.68
29.89
29.66
28.91
27.44
25.02
21.35
16.28
9.87
2.44
-5.49
-13.37
-20.75
-27.34
-33.15
-38.41
-43.57
-49.28
-56.24
-64.86
-74.90
-85.13
-93.38
-96.96
-93.61
-82.26
-63.57
-39.78
-14.06
10.48
31.50
47.85
59.38
66.55
69.96
70.08
67.31
62.08
55.04
47.06
39.13
32.24
27.13
24.15
23.24
23.97
25.73
27.83
29.65
30.77
30.94
30.07
28.22
25.42
21.70
17.04
11.45
5.00
-2.08
-9.43
-16.60
-23.18
-29.00
-34.15
-38.96
-43.94
-49.59
-56.20
-63.66
-71.26
-77.60
-80.80
-79.00
-70.91
-56.47
-36.96
-14.70
7.56
27.42
43.37
54.86
62.02
65.31
65.17
62.05
56.51
49.29
41.36
33.70
27.13
22.12
18.74
16.82
16.01
16.02
16.59
17.62
18.98
20.52
21.93
22.74
22.36
20.19
15.92
9.72
2.27
-5.46
-12.48
-18.27
-22.85
-26.86
-31.17
-36.65
-43.85
-52.75
-62.68
-72.20
-79.26
-81.62
-77.53
-66.34
-48.95
-27.64
-5.43
14.89
31.45
43.53
51.31
55.42
56.39
54.57
50.22
43.81
36.05
28.01
20.69
14.98
11.25
9.45
9.15
9.73
10.74
11.87
13.05
14.28
15.44
16.22
16.25
15.13
12.62
8.78
3.87
-1.72
-7.60
-13.51
-19.30
-24.85
-30.13
-35.09
-39.81
-44.51
-49.59
-55.45
-62.20
-69.20
-75.06
-77.78
-75.38
-66.65
-51.71
-32.11
-10.32
10.94
29.55
44.32
54.91
61.51
64.46
64.04
60.58
54.64
47.06
38.87
31.10
24.48
19.38
15.86
13.82
13.08
13.48
14.69
16.26
17.63
18.30
18.01
16.80
14.94
12.67
10.08
7.00
3.17
-1.58
-7.13
-13.06
-18.85
-24.04
-28.51
-32.44
-36.28
-40.57
-45.79
-52.20
-59.62
-67.31
-73.93
-77.61
-76.51
-69.35
-55.99
-37.66
-16.58
4.56
23.45
38.65
49.66
56.59
59.77
59.50
55.99
49.68
41.40
32.45
24.21
17.83
13.79
11.80
11.02
10.51
9.68
8.48
7.41
7.04
7.71
9.17
10.63
11.12
9.82
6.42
1.18
-5.17
-11.83
-18.14
-23.75
-28.67
-33.15
-37.62
-42.55
-48.41
-55.50
-63.56
-71.67
-78.18
-81.01
-78.38
-69.32
-54.23
-34.74
-13.24
7.80
26.44
41.55
52.59
59.41
62.07
60.79
56.13
49.01
40.65
32.32
25.01
19.20
14.92
11.81
9.52
7.87
6.98
7.11
8.40
10.64
13.24
15.29
15.89
14.48
10.97
5.84
-0.20
-6.29
-11.81
-16.52
-20.60
-24.64
-29.44
-35.74
-43.78
-53.09
-62.31
-69.49
-72.60
-70.05
-61.31
-47.04
-28.97
-9.37
9.45
25.70
38.25
46.68
51.05
51.75
49.32
44.45
38.02
30.95
24.12
18.17
13.36
9.66
6.94
5.09
4.16
4.32
5.49
7.38
9.35
10.62
10.56
8.92
5.82
1.77
-2.60
-6.80
-10.56
-13.99
-17.55
-21.91
-27.67
-35.06
-43.57
-51.89
-58.10
-60.23
-56.89
-47.75
-33.74
-16.73
1.03
17.47
31.15
41.34
47.86
50.87
50.70
47.83
42.83
36.36
29.17
21.96
15.26
9.41
4.59
0.82
-1.88
-3.55
-4.27
-4.22
-3.73
-3.26
-3.29
-4.14
-5.97
-8.67
-11.90
-15.33
-18.70
-21.99
-25.48
-29.67
-35.13
-42.08
-50.11
-58.01
-63.92
-65.81
-62.15
-52.47
-37.60
-19.50
-0.59
16.80
31.03
41.30
47.56
50.24
49.96
47.34
42.92
37.20
30.61
23.64
16.76
10.51
5.33
1.57
-0.64
-1.49
-1.37
-0.80
-0.26
-0.09
-0.49
-1.58
-3.43
-6.08
-9.46
-13.36
-17.52
-21.82
-26.49
-32.00
-38.81
-46.80
-54.94
-61.31
-63.67
-60.29
-50.60
-35.54
-17.20
1.83
19.31
33.74
44.46
51.49
55.07
55.48
52.99
47.92
40.80
32.40
23.68
15.63
9.07
4.45
1.84
0.91
1.09
1.76
2.34
2.44
1.84
0.49
-1.66
-4.56
-8.13
-12.27
-16.94
-22.16
-28.17
-35.26
-43.48
-52.37
-60.64
-66.32
-67.28
-62.02
-50.29
-33.31
-13.44
6.52
24.21
38.19
48.03
54.04
56.72
56.45
53.42
47.80
40.01
30.86
21.50
13.16
6.75
2.64
0.61
-0.04
-0.06
-0.05
-0.29
-0.81
-1.50
-2.35
-3.53
-5.38
-8.19
-12.11
-17.14
-23.19
-30.22
-38.28
-47.16
-56.14
-63.75
-67.88
-66.47
-58.33
-43.69
-24.38
-3.13
17.22
34.51
47.67
56.54
61.37
62.50
60.20
54.79
46.87
37.37
27.52
18.53
11.37
6.55
4.06
3.50
4.21
5.46
6.63
7.30
7.18
6.19
4.35
1.78
-1.41
-5.18
-9.60
-14.89
-21.37
-29.32
-38.74
-49.07
-59.04
-66.72
-69.97
-67.03
-57.17
-41.06
-20.63
1.47
22.55
40.51
54.18
63.16
67.63
68.03
64.91
58.97
51.03
42.11
33.27
25.45
19.31
15.11
12.78
12.02
12.43
13.64
15.22
16.69
17.53
17.18
15.28
11.78
6.99
1.49
-4.07
-9.26
-14.04
-18.79
-24.23
-31.23
-40.30
-51.23
-62.76
-72.60
-77.97
-76.44
-66.88
-49.90
-27.77
-3.64
19.41
39.13
54.39
64.97
71.08
73.03
71.15
65.90
58.09
48.90
39.70
31.75
25.92
22.52
21.37
21.89
23.32
24.95
26.27
27.08
27.38
27.34
27.02
26.25
24.60
21.55
16.72
10.15
2.36
-5.82
-13.51
-20.17
-25.72
-30.50
-35.11
-40.16
-46.25
-53.85
-63.04
-73.34
-83.33
-90.69
-92.80
-87.54
-74.25
-54.04
-29.59
-4.15
19.35
38.99
54.02
64.38
70.33
72.10
69.98
64.42
56.32
46.93
37.64
29.66
23.75
20.07
18.29
17.86
18.16
18.87
19.90
21.30
23.06
24.88
26.20
26.32
24.62
20.85
15.19
8.23
0.73
-6.59
-13.28
-19.32
-24.95
-30.64
-36.99
-44.49
-53.47
-63.66
-74.08
-82.88
-87.69
-86.31
-77.45
-61.36
-39.82
-15.66
8.08
29.02
45.74
57.79
65.25
68.44
67.66
63.34
56.22
47.41
38.31
30.19
23.98
19.91
17.66
16.63
16.26
16.28
16.73
17.77
19.34
21.08
22.33
22.34
20.48
16.57
10.84
3.85
-3.65
-11.03
-17.88
-24.13
-30.09
-36.38
-43.72
-52.62
-63.08
-74.16
-84.00
-90.10
-90.02
-82.29
-66.91
-45.54
-20.98
3.69
25.85
43.91
57.22
65.84
70.05
70.20
66.70
60.17
51.58
42.20
33.35
25.97
20.56
16.96
14.71
13.33
12.50
12.23
12.64
13.83
15.55
17.20
17.86
16.74
13.39
8.01
1.29
-5.79
-12.28
-17.73
-22.28
-26.60
-31.69
-38.53
-47.65
-58.87
-70.95
-81.65
-88.24
-88.12
-79.87
-63.74
-41.67
-16.72
7.90
29.69
47.27
60.29
68.98
73.65
74.48
71.68
65.69
57.33
47.81
38.43
30.31
24.13
20.04
17.67
16.46
15.86
15.58
15.57
15.93
16.68
17.58
18.13
17.71
15.82
12.25
7.15
0.99
-5.65
-12.29
-18.59
-24.40
-29.77
-34.83
-39.86
-45.32
-51.84
-59.93
-69.58
-79.92
-89.02
-94.24
-93.03
-83.89
-67.02
-44.35
-18.98
5.89
27.71
45.12
57.77
65.94
70.08
70.60
67.88
62.34
54.67
45.76
36.65
28.35
21.65
17.00
14.43
13.70
14.33
15.92
18.06
20.46
22.82
24.72
25.76
25.54
23.86
20.74
16.38
11.10
5.15
-1.21
-7.75
-14.22
-20.39
-26.14
-31.57
-37.02
-43.06
-50.31
-59.16
-69.34
-79.75
-88.34
-92.56
-90.12
-79.86
-62.31
-39.61
-14.87
8.79
29.15
45.19
56.83
64.43
68.29
68.55
65.42
59.43
51.54
42.95
34.87
28.15
23.22
20.07
18.41
17.88
18.11
18.82
19.80
20.89
21.90
22.65
22.90
22.32
20.60
17.47
12.85
6.89
0.02
-7.17
-14.11
-20.40
-25.91
-30.81
-35.51
-40.55
-46.48
-53.76
-62.46
-71.99
-80.93
-87.06
-88.01
-81.98
-68.50
-48.76
-25.24
-0.98
21.29
39.72
53.60
62.87
67.89
69.02
66.61
61.20
53.54
44.70
35.81
27.87
21.54
17.04
14.24
12.80
12.36
12.71
13.74
15.36
17.42
19.58
21.35
22.14
21.46
19.05
14.94
9.51
3.39
-2.78
-8.50
-13.62
-18.28
-22.87
-27.87
-33.72
-40.74
-48.99
-58.10
-67.06
-74.18
-77.36
-74.70
-65.22
-49.27
-28.69
-6.14
15.58
34.33
48.89
58.95
64.65
66.29
64.20
58.75
50.64
40.88
30.70
21.27
13.37
7.30
2.85
-0.31
-2.47
-3.60
-3.51
-2.03
0.71
4.17
7.44
9.55
9.77
7.87
4.16
-0.71
-5.99
-11.14
-15.93
-20.48
-25.12
-30.36
-36.67
-44.42
-53.54
-63.21
-71.81
-77.12
-76.93
-69.88
-56.03
-36.99
-15.41
5.88
24.62
39.54
50.19
56.64
59.09
57.83
53.26
46.14
37.55
28.70
20.66
14.06
9.03
5.33
2.63
0.72
-0.34
-0.34
0.81
2.89
5.26
6.98
7.18
5.42
1.83
-2.94
-8.08
-12.89
-17.06
-20.74
-24.41
-28.78
-34.55
-42.21
-51.59
-61.72
-70.67
-76.01
-75.45
-67.74
-53.18
-33.58
-11.70
9.66
28.32
43.08
53.56
59.82
62.02
60.39
55.34
47.66
38.52
29.24
20.92
14.14
8.92
4.93
1.81
-0.57
-2.03
-2.30
-1.33
0.51
2.44
3.55
3.11
0.81
-3.10
-8.03
-13.25
-18.19
-22.54
-26.39
-30.17
-34.58
-40.40
-48.15
-57.67
-67.87
-76.69
-81.57
-80.24
-71.53
-55.90
-35.31
-12.58
9.50
28.83
44.25
55.43
62.35
65.14
63.97
59.25
51.78
42.70
33.27
24.50
17.01
10.97
6.28
2.83
0.61
-0.21
0.51
2.66
5.80
9.05
11.37
11.87
10.06
6.07
0.55
-5.56
-11.40
-16.45
-20.74
-24.81
-29.54
-35.88
-44.45
-55.11
-66.57
-76.47
-81.88
-80.18
-70.07
-52.11
-28.66
-3.15
21.04
41.44
56.85
67.20
73.00
74.86
73.27
68.68
61.69
53.14
44.09
35.60
28.49
23.21
19.82
18.07
17.61
18.05
19.04
20.23
21.23
21.73
21.52
20.56
18.90
16.60
13.64
9.87
5.18
-0.39
-6.60
-13.00
-19.14
-24.75
-29.84
-34.69
-39.73
-45.48
-52.46
-61.00
-70.98
-81.46
-90.53
-95.57
-94.03
-84.31
-66.52
-42.62
-15.76
10.64
33.79
52.08
65.05
72.93
76.31
75.76
71.90
65.42
57.24
48.42
40.01
32.90
27.49
23.78
21.54
20.55
20.74
22.25
25.05
28.80
32.63
35.47
36.39
35.02
31.65
26.99
21.85
16.70
11.65
6.44
0.71
-5.77
-12.98
-20.68
-28.38
-35.62
-42.01
-47.40
-51.93
-56.08
-60.62
-66.35
-73.74
-82.42
-90.95
-96.88
-97.43
-90.41
-75.17
-52.94
-26.55
0.52
25.19
45.48
60.61
70.75
76.41
78.12
76.37
71.67
64.69
56.29
47.38
38.82
31.29
25.26
20.96
18.41
17.48
17.92
19.43
21.63
24.02
26.12
27.43
27.56
26.38
23.93
20.40
16.03
10.98
5.36
-0.80
-7.38
-14.21
-21.03
-27.60
-33.77
-39.61
-45.42
-51.69
-58.96
-67.58
-77.23
-86.74
-94.07
-96.75
-92.74
-81.10
-62.48
-39.00
-13.57
10.90
32.21
49.17
61.43
69.14
72.65
72.35
68.69
62.30
54.02
44.88
35.91
28.06
21.92
17.76
15.43
14.54
14.67
15.41
16.56
18.00
19.59
21.08
22.03
21.84
19.94
16.09
10.46
3.66
-3.48
-10.21
-16.10
-21.22
-25.99
-31.02
-36.90
-44.19
-53.25
-64.03
-75.81
-86.95
-95.02
-97.37
-92.03
-78.51
-58.16
-33.74
-8.59
14.41
33.45
47.80
57.43
62.59
63.50
60.48
54.14
45.48
35.75
26.12
17.33
9.59
2.65
-3.85
-10.05
-15.73
-20.42
-23.69
-25.42
-26.04
-26.44
-27.73
-30.93
-36.63
-44.86
-55.11
-66.52
-78.13
-89.27
-99.72
-109.82
-120.34
-132.22
-146.24
-162.63
-180.78
-199.12
-215.27
-226.41
-230.02
-224.59
-210.02
-187.59
-159.37
-127.56
-93.82
-59.09
-23.80
11.59
46.32
79.26
109.13
134.92
156.07
172.45
184.16
191.37
194.24
193.07
188.46
181.41
173.16
164.88
157.33
150.57
144.05
136.90
128.30
118.00
106.29
93.90
81.64
70.06
59.19
48.64
37.74
25.83
12.47
-2.23
-17.50
-31.77
-42.80
-48.28
-46.50
-37.06
-21.18
-1.34
19.41
38.35
53.69
64.66
71.22
73.66
72.35
67.73
60.42
51.28
41.34
31.65
23.00
15.87
10.44
6.70
4.53
3.75
4.11
5.24
6.61
7.62
7.63
6.26
3.33
-0.91
-5.98
-11.34
-16.51
-21.32
-25.92
-30.80
-36.63
-43.91
-52.58
-61.62
-69.08
-72.41
-69.39
-58.95
-41.83
-20.32
2.43
23.49
40.83
53.62
61.94
66.14
66.67
63.84
58.11
50.14
40.85
31.22
22.16
14.36
8.26
4.04
1.62
0.70
0.82
1.36
1.80
1.70
0.83
-0.86
-3.29
-6.25
-9.52
-13.01
-16.74
-20.95
-26.06
-32.62
-40.95
-50.86
-61.27
-70.26
-75.29
-74.11
-65.40
-49.52
-28.38
-4.94
17.67
36.99
51.62
61.15
65.81
66.13
62.71
56.20
47.44
37.37
27.05
17.46
9.35
3.21
-0.82
-2.92
-3.49
-3.09
-2.23
-1.41
-0.91
-0.92
-1.56
-2.91
-5.11
-8.29
-12.54
-17.90
-24.46
-32.31
-41.53
-51.86
-62.35
-71.20
-75.97
-74.35
-65.02
-48.37
-26.51
-2.71
19.77
38.54
52.45
61.47
66.12
66.93
64.24
58.39
49.92
39.75
29.17
19.43
11.60
6.19
3.22
2.23
2.50
3.27
3.92
4.07
3.58
2.47
0.77
-1.51
-4.46
-8.23
-12.98
-18.92
-26.28
-35.25
-45.78
-57.18
-67.92
-75.70
-77.97
-72.83
-59.86
-40.42
-17.33
6.09
26.96
43.55
55.32
62.48
65.49
64.68
60.37
53.07
43.62
33.18
22.96
13.99
6.90
1.92
-1.06
-2.34
-2.42
-1.83
-1.08
-0.53
-0.38
-0.73
-1.59
-3.05
-5.33
-8.72
-13.53
-20.08
-28.59
-38.98
-50.66
-62.17
-71.25
-75.29
-72.14
-61.00
-42.83
-20.17
3.67
25.69
43.89
57.41
66.25
70.70
71.03
67.48
60.47
50.80
39.70
28.61
18.86
11.38
6.58
4.28
3.90
4.64
5.67
6.41
6.55
6.04
4.85
2.98
0.33
-3.19
-7.56
-12.72
-18.68
-25.64
-33.97
-43.87
-54.84
-65.34
-72.92
-74.90
-69.33
-55.88
-35.98
-12.37
11.69
33.41
50.89
63.20
70.14
71.95
69.18
62.72
53.73
43.57
33.53
24.56
17.22
11.60
7.63
5.20
4.23
4.68
6.34
8.79
11.30
13.03
13.25
11.60
8.12
3.23
-2.44
-8.35
-14.09
-19.63
-25.22
-31.33
-38.59
-47.48
-57.98
-69.13
-78.94
-84.63
-83.56
-74.15
-56.65
-33.23
-7.23
17.79
39.09
55.19
65.69
70.84
71.13
67.17
59.76
50.06
39.41
29.21
20.49
13.77
9.19
6.62
5.87
6.75
9.02
12.23
15.69
18.51
19.85
19.06
16.02
11.05
4.82
-1.88
-8.45
-14.65
-20.63
-26.89
-34.10
-42.89
-53.35
-64.80
-75.52
-83.05
-84.77
-78.78
-64.71
-43.91
-19.28
5.77
28.29
46.39
59.34
67.23
70.46
69.44
64.61
56.72
46.90
36.57
27.12
19.55
14.25
11.02
9.46
9.13
9.80
11.29
13.32
15.34
16.54
16.10
13.46
8.61
2.07
-5.31
-12.61
-19.27
-25.22
-30.85
-36.88
-44.06
-52.86
-63.12
-73.84
-83.04
-88.23
-86.99
-77.87
-60.97
-38.03
-12.02
13.74
36.47
54.45
67.04
74.33
76.75
74.78
68.99
60.23
49.70
38.89
29.20
21.61
16.39
13.21
11.41
10.43
10.04
10.32
11.38
13.08
14.76
15.52
14.43
11.02
5.51
-1.33
-8.48
-15.05
-20.58
-25.16
-29.31
-33.86
-39.69
-47.41
-56.97
-67.33
-76.48
-81.81
-80.87
-72.27
-56.26
-34.65
-10.34
13.63
34.81
51.78
63.99
71.44
74.37
73.08
68.06
60.10
50.34
40.14
30.85
23.51
18.59
16.02
15.27
15.63
16.57
17.82
19.37
21.18
23.04
24.34
24.25
21.99
17.23
10.20
1.70
-7.17
-15.40
-22.39
-28.00
-32.60
-36.84
-41.42
-47.05
-54.22
-62.96
-72.63
-81.69
-87.86
-88.70
-82.36
-68.27
-47.59
-22.87
2.64
25.91
44.90
58.73
67.50
71.81
72.34
69.66
64.32
57.02
48.69
40.43
33.30
28.05
24.93
23.76
24.02
25.19
26.88
28.88
31.07
33.25
35.10
36.23
36.32
35.20
32.88
29.51
25.27
20.41
15.14
9.72
4.41
-0.59
-5.14
-9.30
-13.28
-17.36
-21.77
-26.57
-31.60
-36.51
-40.94
-44.64
-47.62
-50.17
-52.86
-56.33
-61.26
-68.05
-76.51
-85.60
-93.39
-97.39
-95.29
-85.76
-69.04
-46.94
-22.32
1.87
23.31
40.70
53.62
62.21
66.72
67.44
64.76
59.35
52.24
44.61
37.61
32.01
28.15
25.89
24.97
25.02
25.86
27.42
29.65
32.42
35.35
37.83
39.14
38.63
35.96
31.26
25.05
18.21
11.61
5.90
1.22
-2.75
-6.58
-10.90
-16.01
-21.77
-27.75
-33.35
-38.16
-42.11
-45.40
-48.48
-51.86
-56.08
-61.56
-68.51
-76.55
-84.53
-90.48
-92.05
-87.32
-75.60
-57.71
-35.92
-13.03
8.42
26.74
41.25
51.92
58.97
62.56
62.82
60.07
54.96
48.44
41.58
35.28
30.10
26.18
23.47
21.88
21.43
22.24
24.34
27.52
31.21
34.54
36.64
36.86
34.99
31.34
26.57
21.46
16.55
12.06
7.74
3.14
-2.17
-8.39
-15.27
-22.33
-28.89
-34.49
-38.97
-42.62
-45.97
-49.74
-54.64
-61.09
-69.01
-77.55
-85.03
-89.21
-87.90
-79.77
-64.84
-44.65
-21.77
0.90
21.02
37.16
48.84
56.23
59.79
60.03
57.48
52.71
46.46
39.52
32.70
26.66
21.86
18.50
16.63
16.14
16.98
19.01
22.03
25.65
29.20
31.87
32.84
31.69
28.44
23.63
18.06
12.44
7.12
2.03
-3.12
-8.61
-14.48
-20.46
-26.15
-31.23
-35.63
-39.56
-43.41
-47.68
-52.83
-59.23
-66.82
-74.95
-82.17
-86.42
-85.64
-78.42
-64.64
-45.61
-23.67
-1.49
18.62
35.18
47.53
55.71
60.10
61.20
59.56
55.74
50.28
43.75
36.72
29.84
23.72
18.88
15.59
13.82
13.33
13.71
14.57
15.63
16.64
17.40
17.68
17.22
15.81
13.32
9.75
5.23
-0.02
-5.74
-11.57
-17.17
-22.32
-26.95
-31.20
-35.47
-40.23
-46.00
-53.01
-60.96
-68.92
-75.23
-77.97
-75.44
-66.78
-52.37
-33.72
-13.08
7.20
25.31
40.15
51.26
58.60
62.25
62.37
59.26
53.49
45.94
37.68
29.75
22.93
17.65
13.88
11.37
9.83
9.06
9.02
9.76
11.13
12.78
14.11
14.42
13.21
10.33
6.08
1.01
-4.16
-8.96
-13.16
-16.90
-20.60
-24.77
-29.96
-36.59
-44.79
-54.12
-63.47
-71.14
-75.12
-73.63
-65.75
-51.79
-33.31
-12.69
7.52
25.21
39.14
48.87
54.56
56.62
55.50
51.68
45.82
38.78
31.50
24.80
19.17
14.63
10.99
8.06
5.82
4.53
4.41
5.55
7.55
9.73
11.21
11.32
9.73
6.54
2.24
-2.56
-7.25
-11.46
-15.14
-18.63
-22.61
-27.95
-35.27
-44.59
-55.01
-64.67
-71.22
-72.48
-67.20
-55.50
-38.85
-19.51
0.08
17.93
32.76
43.89
51.10
54.42
54.10
50.71
45.09
38.24
31.13
24.47
18.66
13.78
9.77
6.59
4.29
2.98
2.72
3.36
4.48
5.44
5.61
4.57
2.25
-1.09
-4.93
-8.86
-12.59
-16.21
-20.06
-24.71
-30.73
-38.41
-47.41
-56.52
-63.82
-67.06
-64.47
-55.38
-40.63
-22.24
-2.85
15.14
30.09
41.26
48.57
52.27
52.64
50.04
44.92
37.93
29.86
21.53
13.67
6.84
1.44
-2.34
-4.42
-4.99
-4.52
-3.57
-2.71
-2.35
-2.67
-3.64
-5.13
-7.05
-9.34
-12.08
-15.35
-19.35
-24.40
-30.86
-38.87
-47.98
-56.85
-63.44
-65.51
-61.42
-50.80
-34.84
-15.85
3.44
20.80
34.89
45.23
51.87
55.03
54.89
51.68
45.87
38.23
29.75
21.45
14.19
8.58
4.89
3.11
3.03
4.14
5.77
7.26
8.01
7.69
6.25
3.82
0.66
-2.98
-6.98
-11.32
-16.12
-21.71
-28.48
-36.61
-45.81
-55.05
-62.55
-66.20
-64.19
-55.65
-41.11
-22.33
-1.91
17.49
33.82
45.93
53.55
57.02
56.92
53.82
48.22
40.65
31.78
22.48
13.77
6.54
1.42
-1.43
-2.35
-1.97
-0.99
0.00
0.68
0.97
0.79
0.12
-1.23
-3.44
-6.64
-10.89
-16.10
-22.22
-29.33
-37.53
-46.67
-56.04
-64.09
-68.72
-67.79
-60.08
-45.76
-26.55
-5.20
15.44
33.15
46.75
55.99
61.12
62.50
60.44
55.36
47.89
39.04
29.84
21.29
14.04
8.40
4.42
2.06
1.31
2.04
3.87
6.15
8.00
8.60
7.40
4.43
0.12
-4.87
-9.99
-14.92
-19.78
-24.94
-30.94
-38.27
-47.13
-57.03
-66.71
-74.11
-76.86
-73.03
-61.87
-44.16
-22.09
1.41
23.48
42.01
55.85
64.72
68.82
68.60
64.67
57.78
48.93
39.25
29.88
21.73
15.36
10.97
8.48
7.65
8.09
9.43
11.15
12.62
13.16
12.22
9.50
5.13
-0.45
-6.57
-12.60
-18.17
-23.30
-28.42
-34.24
-41.57
-50.89
-61.97
-73.62
-83.63
-89.27
-88.08
-78.74
-61.62
-38.77
-13.25
11.75
33.73
51.34
64.17
72.36
76.15
75.71
71.27
63.46
53.39
42.63
32.82
25.23
20.43
18.23
17.93
18.63
19.74
21.03
22.51
24.22
25.90
26.90
26.33
23.48
18.15
10.78
2.38
-5.95
-13.41
-19.77
-25.41
-31.13
-37.90
-46.48
-57.17
-69.52
-82.11
-92.65
-98.37
-96.83
-86.72
-68.40
-43.95
-16.60
10.25
33.82
52.46
65.66
73.65
77.05
76.52
72.71
66.39
58.56
50.38
43.07
37.53
34.18
32.90
33.16
34.28
35.82
37.58
39.66
42.10
44.72
47.01
48.22
47.59
44.72
39.68
33.06
25.77
18.70
12.44
7.04
2.07
-3.19
-9.35
-16.71
-24.95
-33.38
-41.03
-47.18
-51.54
-54.38
-56.45
-58.75
-62.37
-68.15
-76.39
-86.48
-96.74
-104.56
-106.98
-101.55
-87.29
-65.12
-37.73
-8.80
18.19
40.78
57.88
69.50
76.21
78.59
77.11
72.24
64.76
55.82
46.86
39.21
33.83
30.98
30.42
31.50
33.56
36.08
38.72
41.32
43.74
45.72
46.83
46.51
44.32
40.16
34.34
27.57
20.72
14.49
9.20
4.64
0.32
-4.38
-9.86
-16.16
-22.92
-29.52
-35.31
-39.88
-43.19
-45.65
-48.01
-51.15
-55.88
-62.69
-71.54
-81.58
-91.08
-97.67
-98.80
-92.54
-78.31
-57.20
-31.74
-5.17
19.46
39.98
55.37
65.55
70.96
72.22
69.97
64.89
57.82
49.76
41.73
34.63
29.12
25.46
23.66
23.54
24.87
27.41
30.87
34.82
38.61
41.53
42.87
42.22
39.58
35.35
30.20
24.76
19.41
14.19
8.86
3.08
-3.37
-10.56
-18.21
-25.91
-33.13
-39.49
-44.82
-49.31
-53.58
-58.43
-64.65
-72.45
-81.12
-88.82
-93.07
-91.42
-82.40
-66.20
-44.67
-20.75
2.51
22.73
38.68
50.14
57.49
61.20
61.68
59.28
54.49
48.05
40.90
34.00
28.13
23.80
21.17
20.17
20.61
22.20
24.64
27.49
30.25
32.33
33.26
32.81
30.95
27.93
24.00
19.31
13.88
7.63
0.59
-6.98
-14.64
-21.92
-28.46
-34.23
-39.44
-44.42
-49.60
-55.40
-62.19
-69.98
-78.25
-85.57
-89.86
-88.82
-80.86
-65.82
-45.26
-21.95
1.08
21.37
37.63
49.64
57.73
62.34
63.81
62.35
58.34
52.43
45.51
38.53
32.27
27.23
23.57
21.30
20.28
20.34
21.31
22.89
24.74
26.44
27.56
27.81
26.97
24.93
21.66
17.15
11.51
5.03
-1.85
-8.58
-14.67
-19.93
-24.54
-28.96
-33.84
-39.85
-47.41
-56.62
-66.98
-77.17
-85.21
-88.72
-85.69
-75.19
-57.90
-35.98
-12.47
9.69
28.47
43.02
53.44
60.26
63.92
64.60
62.34
57.26
49.93
41.33
32.70
25.27
19.83
16.66
15.44
15.56
16.38
17.49
18.76
20.13
21.53
22.61
22.86
21.77
19.03
14.65
8.93
2.36
-4.52
-11.28
-17.61
-23.40
-28.68
-33.67
-38.66
-44.08
-50.38
-57.85
-66.41
-75.32
-83.11
-87.72
-87.05
-79.73
-65.62
-46.07
-23.55
-0.83
19.67
36.48
49.03
57.40
61.89
62.86
60.66
55.78
48.90
40.89
32.69
25.13
18.87
14.30
11.55
10.43
10.62
11.67
13.17
14.83
16.48
17.99
19.11
19.44
18.52
16.02
11.91
6.55
0.50
-5.65
-11.59
-17.29
-22.91
-28.62
-34.49
-40.56
-46.99
-54.04
-61.87
-70.15
-77.74
-82.76
-83.07
-77.07
-64.34
-45.91
-23.98
-1.23
19.92
37.81
51.64
61.30
66.98
68.98
67.60
63.17
56.27
47.69
38.47
29.70
22.33
16.93
13.69
12.39
12.57
13.73
15.39
17.14
18.71
19.87
20.45
20.33
19.40
17.54
14.63
10.70
5.78
0.15
-5.86
-11.94
-17.82
-23.40
-28.74
-33.99
-39.47
-45.59
-52.74
-61.02
-69.98
-78.29
-83.92
-84.61
-78.71
-65.92
-47.48
-25.86
-3.86
16.16
32.82
45.70
54.89
60.51
62.56
60.96
55.93
48.21
39.04
29.89
21.99
16.06
12.21
10.08
9.19
9.17
9.89
11.34
13.45
15.89
18.10
19.39
19.18
17.19
13.53
8.65
3.20
-2.20
-7.14
-11.54
-15.65
-19.88
-24.73
-30.66
-37.93
-46.54
-55.95
-65.03
-71.98
-74.77
-71.69
-61.99
-46.40
-26.85
-6.04
13.56
30.18
42.99
51.82
56.80
58.04
55.65
50.01
41.94
32.61
23.28
14.99
8.27
3.18
-0.48
-2.90
-4.11
-4.05
-2.75
-0.47
2.22
4.52
5.70
5.26
3.13
-0.42
-4.88
-9.65
-14.27
-18.56
-22.61
-26.89
-32.06
-38.70
-46.92
-56.00
-64.22
-69.33
-69.12
-62.27
-48.95
-30.78
-10.32
9.75
27.29
41.14
50.89
56.61
58.48
56.79
52.01
44.96
36.76
28.58
21.33
15.46
10.92
7.39
4.54
2.32
0.93
0.64
1.54
3.32
5.25
6.40
5.96
3.59
-0.48
-5.53
-10.75
-15.53
-19.72
-23.63
-27.93
-33.31
-40.33
-49.11
-59.14
-69.12
-77.09
-80.77
-78.24
-68.64
-52.52
-31.81
-9.27
12.34
30.87
45.10
54.68
59.84
61.06
58.97
54.28
47.78
40.31
32.65
25.46
19.17
14.01
10.05
7.32
5.79
5.51
6.39
8.15
10.26
11.97
12.45
11.09
7.68
2.58
-3.43
-9.44
-14.74
-19.15
-23.09
-27.43
-33.24
-41.31
-51.77
-63.81
-75.55
-84.41
-87.71
-83.56
-71.55
-52.92
-30.29
-6.72
15.11
33.45
47.61
57.57
63.57
65.83
64.65
60.46
54.04
46.38
38.53
31.33
25.25
20.44
16.78
14.18
12.60
12.14
12.91
14.76
17.17
19.21
19.83
18.16
13.97
7.70
0.38
-6.88
-13.30
-18.80
-23.99
-29.90
-37.55
-47.47
-59.33
-71.74
-82.45
-88.86
-88.71
-80.80
-65.41
-44.27
-20.07
4.28
26.32
44.47
57.97
66.71
70.94
71.11
67.85
62.00
54.53
46.43
38.46
31.18
24.88
19.69
15.73
13.11
11.92
12.10
13.45
15.47
17.46
18.65
18.30
15.93
11.56
5.66
-0.88
-7.18
-12.68
-17.37
-21.83
-26.92
-33.55
-42.17
-52.64
-63.92
-74.19
-81.09
-82.30
-76.28
-62.86
-43.45
-20.61
2.69
23.92
41.54
54.91
63.96
68.76
69.27
65.65
58.54
49.15
39.17
30.23
23.43
19.11
16.93
16.16
16.14
16.47
17.04
17.90
19.11
20.52
21.73
22.13
21.02
17.90
12.63
5.62
-2.24
-9.89
-16.55
-21.97
-26.55
-31.04
-36.29
-43.01
-51.41
-61.14
-71.08
-79.42
-83.87
-82.34
-73.63
-57.95
-37.13
-13.95
8.65
28.41
44.17
55.71
63.22
66.92
66.93
63.35
56.70
48.04
38.81
30.48
24.16
20.34
18.83
19.01
20.13
21.55
22.92
24.12
25.17
25.99
26.36
25.84
23.99
20.50
15.40
9.09
2.26
-4.45
-10.62
-16.19
-21.41
-26.66
-32.37
-38.94
-46.66
-55.56
-65.13
-74.07
-80.36
-81.74
-76.44
-63.94
-45.34
-23.02
0.10
21.45
39.40
53.30
63.11
68.98
70.96
69.11
63.75
55.72
46.31
37.00
28.98
22.86
18.64
15.89
14.10
12.94
12.35
12.44
13.29
14.73
16.23
17.02
16.35
13.77
9.35
3.64
-2.52
-8.29
-13.21
-17.25
-20.78
-24.41
-28.81
-34.57
-42.09
-51.32
-61.48
-71.02
-77.69
-79.17
-73.83
-61.45
-43.35
-22.04
-0.34
19.43
35.84
48.35
56.90
61.54
62.24
59.14
52.74
44.09
34.62
25.74
18.52
13.46
10.46
9.06
8.72
9.09
10.00
11.52
13.66
16.20
18.55
19.84
19.23
16.26
11.13
4.66
-2.01
-7.98
-12.81
-16.75
-20.50
-24.92
-30.75
-38.24
-47.13
-56.39
-64.37
-69.05
-68.58
-61.91
-49.19
-31.85
-12.26
7.04
23.98
37.32
46.64
52.06
53.89
52.51
48.42
42.27
34.88
27.18
19.95
13.67
8.53
4.53
1.65
-0.01
-0.32
0.70
2.69
4.94
6.55
6.75
5.18
1.94
-2.44
-7.31
-12.13
-16.59
-20.71
-24.80
-29.38
-35.08
-42.36
-51.14
-60.51
-68.61
-73.08
-71.77
-63.57
-48.91
-29.76
-8.87
11.02
27.94
40.93
49.80
54.78
56.15
54.22
49.42
42.45
34.21
25.70
17.79
11.07
5.87
2.27
0.27
-0.28
0.34
1.72
3.30
4.51
4.83
3.98
1.92
-1.08
-4.63
-8.32
-11.94
-15.53
-19.43
-24.19
-30.44
-38.55
-48.30
-58.64
-67.67
-72.99
-72.45
-64.86
-50.55
-31.28
-9.72
11.27
29.50
43.68
53.37
58.76
60.27
58.50
54.16
48.01
40.90
33.51
26.41
19.98
14.47
10.12
7.13
5.65
5.66
6.82
8.55
10.06
10.57
9.51
6.69
2.32
-3.08
-8.88
-14.55
-19.79
-24.66
-29.58
-35.14
-42.03
-50.55
-60.29
-69.93
-77.31
-80.04
-76.25
-65.31
-48.18
-27.10
-4.88
15.91
33.48
47.04
56.45
61.91
63.65
61.99
57.42
50.76
43.11
35.53
28.86
23.55
19.60
16.80
14.91
13.79
13.42
13.77
14.59
15.37
15.45
14.13
11.04
6.22
0.16
-6.41
-12.77
-18.51
-23.67
-28.73
-34.39
-41.39
-50.20
-60.66
-71.80
-81.69
-87.84
-87.83
-80.16
-64.89
-43.69
-19.43
4.75
26.28
43.67
56.48
64.93
69.48
70.48
68.27
63.37
56.52
48.74
41.17
34.76
30.11
27.41
26.49
26.95
28.34
30.27
32.39
34.41
36.08
37.18
37.53
36.94
35.29
32.47
28.55
23.73
18.41
13.07
8.12
3.74
-0.17
-3.93
-7.98
-12.64
-17.99
-23.87
-29.89
-35.64
-40.77
-45.08
-48.63
-51.69
-54.77
-58.57
-63.85
-71.06
-79.93
-89.22
-96.66
-99.59
-95.75
-84.18
-65.61
-42.32
-17.37
6.35
26.77
42.94
54.72
62.35
66.16
66.42
63.50
58.16
51.46
44.62
38.76
34.55
32.18
31.34
31.56
32.42
33.67
35.20
36.94
38.71
40.21
40.99
40.65
38.89
35.61
31.02
25.56
19.84
14.46
9.86
6.07
2.78
-0.53
-4.38
-9.01
-14.31
-19.91
-25.28
-30.00
-33.91
-37.12
-40.04
-43.25
-47.40
-53.04
-60.37
-68.96
-77.52
-83.99
-86.08
-81.92
-70.84
-53.67
-32.55
-10.28
10.55
28.14
41.71
51.23
57.00
59.33
58.49
54.80
48.93
41.83
34.62
28.30
23.52
20.55
19.34
19.75
21.55
24.47
28.07
31.76
34.85
36.72
37.01
35.72
33.11
29.55
25.36
20.75
15.76
10.31
4.36
-2.05
-8.73
-15.34
-21.51
-26.94
-31.52
-35.40
-38.95
-42.73
-47.33
-53.14
-60.03
-67.12
-72.76
-74.88
-71.68
-62.32
-47.36
-28.66
-8.78
9.81
25.45
37.47
45.97
51.35
53.89
53.68
50.70
45.26
38.07
30.31
23.24
17.90
14.70
13.46
13.57
14.30
15.17
15.99
16.82
17.75
18.70
19.31
19.04
17.42
14.19
9.51
3.85
-2.13
-7.88
-13.08
-17.75
-22.14
-26.64
-31.63
-37.42
-44.28
-52.24
-60.90
-69.26
-75.64
-78.05
-74.75
-65.03
-49.56
-30.30
-9.87
9.30
25.53
38.12
47.02
52.39
54.32
52.86
48.31
41.43
33.43
25.64
19.12
14.38
11.34
9.54
8.45
7.79
7.50
7.74
8.61
9.99
11.41
12.11
11.37
8.74
4.34
-1.27
-7.22
-12.73
-17.47
-21.64
-25.83
-30.72
-36.91
-44.58
-53.47
-62.75
-70.96
-76.26
-76.78
-71.17
-59.20
-41.94
-21.61
-0.82
18.02
33.37
44.59
51.80
55.42
55.92
53.69
49.23
43.11
36.09
28.94
22.33
16.74
12.38
9.36
7.72
7.39
8.15
9.55
10.98
11.72
11.20
9.15
5.61
0.90
-4.50
-10.21
-15.95
-21.66
-27.54
-34.01
-41.64
-50.78
-61.21
-71.75
-80.31
-84.34
-81.68
-71.43
-54.33
-32.59
-9.26
12.81
31.58
46.06
56.05
61.82
63.73
62.21
57.82
51.32
43.63
35.67
28.13
21.49
15.96
11.63
8.65
7.16
7.26
8.75
11.12
13.48
14.87
14.46
11.88
7.28
1.23
-5.51
-12.30
-18.85
-25.29
-32.13
-40.03
-49.42
-60.11
-71.05
-80.31
-85.53
-84.55
-76.22
-60.78
-39.97
-16.50
6.77
27.43
44.03
56.08
63.70
67.30
67.37
64.37
58.94
51.88
44.16
36.78
30.54
25.88
22.88
21.37
21.05
21.64
22.82
24.29
25.67
26.63
26.93
26.39
24.93
22.41
18.73
13.75
7.52
0.28
-7.53
-15.40
-22.88
-29.75
-36.01
-41.80
-47.38
-53.13
-59.55
-67.14
-76.08
-85.81
-94.76
-100.50
-100.41
-92.65
-76.90
-54.65
-28.83
-2.75
20.74
39.94
54.29
64.05
69.78
72.02
71.20
67.81
62.45
55.85
48.85
42.19
36.51
32.22
29.51
28.35
28.59
29.90
31.86
34.00
35.79
36.75
36.51
34.90
31.98
28.02
23.37
18.27
12.75
6.68
-0.14
-7.72
-15.82
-23.89
-31.45
-38.18
-44.23
-50.17
-56.81
-64.83
-74.41
-84.87
-94.60
-101.37
-102.81
-97.18
-83.89
-63.83
-39.13
-12.69
12.63
34.56
51.73
63.69
70.71
73.36
72.44
68.74
63.11
56.39
49.44
43.07
37.90
34.27
32.22
31.58
32.11
33.61
35.90
38.77
41.81
44.36
45.65
45.05
42.29
37.62
31.73
25.43
19.40
13.88
8.63
3.10
-3.19
-10.44
-18.41
-26.51
-34.09
-40.63
-46.05
-50.62
-54.98
-59.88
-66.03
-73.78
-82.83
-92.01
-99.25
-102.07
-98.28
-86.75
-68.03
-44.13
-17.99
7.39
29.73
47.73
60.99
69.62
73.96
74.43
71.59
66.25
59.46
52.35
45.95
40.95
37.63
35.84
35.18
35.24
35.77
36.70
38.15
40.11
42.38
44.43
45.53
45.00
42.51
38.17
32.53
26.41
20.49
15.10
10.11
5.11
-0.38
-6.62
-13.53
-20.74
-27.64
-33.76
-38.74
-42.51
-45.28
-47.50
-49.89
-53.27
-58.37
-65.43
-73.89
-82.21
-88.13
-89.26
-83.87
-71.54
-53.27
-31.31
-8.31
13.22
31.53
45.75
55.73
61.74
64.23
63.66
60.48
55.19
48.43
41.07
34.04
28.20
24.13
22.03
21.67
22.65
24.47
26.64
28.64
29.94
30.05
28.64
25.78
21.94
17.81
14.01
10.83
8.01
5.03
1.27
-3.62
-9.62
-16.38
-23.36
-30.00
-35.94
-41.00
-45.38
-49.57
-54.31
-60.14
-66.95
-73.74
-78.56
-79.15
-73.72
-61.75
-44.32
-23.84
-3.20
15.09
29.54
39.78
46.19
49.39
49.90
48.11
44.34
39.03
32.85
26.57
20.95
16.54
13.57
12.04
11.69
12.22
13.34
14.83
16.57
18.46
20.31
21.79
22.48
21.88
19.60
15.57
10.05
3.55
-3.24
-9.76
-15.72
-21.13
-26.29
-31.67
-37.83
-45.22
-53.98
-63.64
-72.88
-79.71
-81.90
-77.72
-66.68
-49.79
-29.27
-7.86
11.98
28.67
41.58
50.74
56.47
59.03
58.63
55.46
49.90
42.59
34.39
26.23
18.93
13.09
8.96
6.45
5.30
5.20
5.94
7.45
9.66
12.33
14.88
16.52
16.41
14.09
9.62
3.66
-2.84
-9.04
-14.45
-19.23
-23.88
-29.07
-35.37
-43.11
-52.32
-62.60
-72.94
-81.70
-86.77
-86.12
-78.52
-64.07
-44.37
-21.99
0.25
20.09
36.23
48.25
56.24
60.42
60.99
58.21
52.58
44.99
36.59
28.56
21.82
16.84
13.57
11.60
10.47
9.90
9.90
10.64
12.26
14.54
16.81
18.10
17.50
14.52
9.27
2.52
-4.80
-11.81
-18.07
-23.63
-28.90
-34.52
-41.12
-49.19
-58.75
-69.20
-79.08
-86.23
-88.30
-83.53
-71.40
-52.99
-30.64
-7.20
14.78
33.58
48.44
59.20
65.90
68.61
67.49
62.92
55.74
47.13
38.32
30.25
23.45
18.01
13.78
10.65
8.64
7.89
8.41
9.96
11.95
13.51
13.81
12.27
8.78
3.72
-2.23
-8.31
-13.99
-19.07
-23.79
-28.68
-34.42
-41.72
-50.94
-61.77
-73.02
-82.57
-87.76
-86.27
-76.90
-60.13
-38.06
-13.68
10.03
30.87
47.72
60.26
68.54
72.65
72.69
68.91
62.02
53.11
43.54
34.51
26.81
20.66
15.88
12.09
9.04
6.84
5.85
6.43
8.62
11.81
14.89
16.59
15.97
12.76
7.44
0.91
-5.86
-12.29
-18.21
-23.85
-29.72
-36.46
-44.71
-54.91
-66.86
-79.30
-89.92
-95.74
-94.07
-83.59
-64.93
-40.59
-14.02
11.38
33.22
50.32
62.56
70.30
73.99
73.98
70.74
64.92
57.45
49.45
41.92
35.57
30.64
26.99
24.27
22.19
20.65
19.76
19.69
20.43
21.66
22.70
22.74
21.12
17.49
12.00
5.18
-2.30
-9.79
-16.84
-23.29
-29.21
-34.92
-40.93
-47.90
-56.48
-66.90
-78.54
-89.65
-97.56
-99.37
-93.05
-78.24
-56.52
-30.88
-4.73
19.10
39.01
54.47
65.59
72.59
75.58
74.60
69.88
62.11
52.39
42.07
32.41
24.44
18.71
15.32
14.03
14.37
15.80
17.84
20.08
22.21
23.97
25.01
24.94
23.35
19.96
14.78
8.16
0.84
-6.40
-12.93
-18.58
-23.67
-28.89
-34.97
-42.45
-51.55
-62.05
-73.16
-83.51
-91.14
-93.85
-89.69
-77.82
-58.86
-34.97
-9.26
15.11
35.83
51.87
63.22
70.46
74.13
74.52
71.71
65.95
57.85
48.47
39.09
30.83
24.38
19.88
17.00
15.31
14.50
14.49
15.39
17.22
19.69
22.14
23.64
23.31
20.69
15.86
9.47
2.38
-4.56
-10.86
-16.41
-21.52
-26.67
-32.44
-39.43
-48.05
-58.26
-69.26
-79.29
-85.90
-86.62
-79.79
-65.36
-45.00
-21.58
1.81
22.72
39.80
52.71
61.61
66.68
67.96
65.47
59.55
51.09
41.41
31.94
23.80
17.56
13.18
10.33
8.59
7.83
8.07
9.44
11.89
14.94
17.76
19.33
18.79
15.75
10.52
3.88
-3.16
-9.73
-15.41
-20.33
-25.02
-30.21
-36.59
-44.58
-54.14
-64.52
-74.11
-80.68
-81.87
-76.02
-62.80
-43.51
-20.67
2.74
24.16
42.01
55.63
65.02
70.31
71.65
69.26
63.62
55.63
46.56
37.66
29.89
23.62
18.77
15.02
12.09
9.94
8.75
8.75
9.90
11.79
13.56
14.20
12.88
9.24
3.57
-3.34
-10.47
-16.99
-22.48
-27.13
-31.60
-36.76
-43.44
-52.09
-62.55
-73.82
-84.03
-90.69
-91.36
-84.42
-69.71
-48.83
-24.57
-0.15
21.69
39.28
52.03
60.05
63.73
63.47
59.70
53.09
44.56
35.25
26.27
18.48
12.34
7.87
4.85
2.96
2.03
2.09
3.24
5.45
8.28
10.92
12.29
11.49
8.16
2.75
-3.79
-10.34
-16.14
-21.02
-25.49
-30.43
-36.84
-45.47
-56.33
-68.51
-80.05
-88.19
-90.19
-84.14
-69.77
-48.61
-23.59
1.94
25.14
44.20
58.44
67.86
72.73
73.31
69.99
63.40
54.60
44.94
35.77
28.05
22.19
18.02
15.14
13.23
12.21
12.27
13.55
15.89
18.62
20.66
20.87
18.54
13.64
6.83
-0.76
-8.06
-14.44
-19.85
-24.80
-30.10
-36.57
-44.84
-55.03
-66.46
-77.56
-85.93
-88.87
-84.28
-71.43
-51.43
-26.95
-1.36
22.33
42.16
57.31
67.79
73.75
75.33
72.66
66.16
56.83
46.11
35.51
26.17
18.63
12.89
8.78
6.13
5.04
5.62
7.78
11.08
14.64
17.43
18.56
17.62
14.67
10.27
5.09
-0.32
-5.74
-11.30
-17.44
-24.74
-33.73
-44.72
-57.48
-71.03
-83.49
-92.36
-95.09
-89.91
-76.55
-56.39
-32.14
-7.01
16.20
35.52
50.05
59.63
64.53
65.20
62.25
56.43
48.72
40.10
31.48
23.57
16.75
11.17
6.87
3.87
2.32
2.32
3.90
6.69
9.94
12.61
13.71
12.67
9.61
5.12
0.11
-4.70
-8.99
-12.92
-17.07
-22.16
-28.80
-37.36
-47.55
-58.30
-67.69
-73.31
-72.88
-65.10
-50.15
-29.82
-6.95
15.39
34.74
49.63
59.56
64.60
65.13
61.64
54.93
46.02
36.24
26.84
18.74
12.36
7.67
4.42
2.47
1.83
2.54
4.52
7.22
9.80
11.27
10.89
8.45
4.33
-0.67
-5.73
-10.28
-14.30
-18.21
-22.84
-29.07
-37.49
-47.91
-59.09
-68.79
-74.20
-72.87
-63.50
-46.63
-24.44
-0.21
22.76
41.88
55.77
64.11
67.23
65.83
60.65
52.62
42.80
32.31
22.24
13.46
6.47
1.46
-1.60
-2.96
-2.91
-1.81
-0.20
1.36
2.25
2.05
0.60
-1.93
-5.23
-8.94
-12.91
-17.16
-22.00
-27.84
-35.12
-44.14
-54.74
-65.99
-76.10
-82.57
-82.83
-75.15
-59.39
-37.29
-12.01
12.81
34.08
49.97
60.04
64.82
65.23
62.08
55.98
47.46
37.23
26.34
16.10
7.76
2.15
-0.60
-1.04
-0.16
1.00
1.77
1.84
1.28
0.25
-1.27
-3.41
-6.45
-10.51
-15.52
-21.26
-27.60
-34.76
-43.24
-53.39
-64.85
-76.12
-84.60
-87.32
-82.00
-68.07
-46.94
-21.63
4.24
27.60
46.52
60.29
68.98
72.97
72.63
68.38
60.87
51.10
40.37
29.98
21.06
14.25
9.79
7.50
6.95
7.57
8.76
9.84
10.24
9.55
7.65
4.67
0.88
-3.45
-8.14
-13.18
-18.73
-25.13
-32.86
-42.32
-53.51
-65.54
-76.56
-83.87
-84.72
-77.27
-61.37
-38.82
-12.80
13.13
36.04
54.16
66.93
74.52
77.40
76.11
71.23
63.57
54.22
44.44
35.39
27.93
22.43
18.79
16.64
15.52
15.14
15.34
16.17
17.45
18.79
19.42
18.47
15.25
9.68
2.33
-5.72
-13.46
-20.37
-26.59
-32.90
-40.31
-49.67
-61.24
-74.35
-87.38
-97.86
-102.95
-100.29
-88.77
-69.02
-43.33
-15.01
12.64
37.00
56.65
71.07
80.37
84.79
84.69
80.67
73.64
64.89
55.85
47.79
41.61
37.65
35.81
35.72
37.02
39.43
42.73
46.64
50.75
54.41
56.95
57.81
56.85
54.30
50.73
46.75
42.82
39.08
35.48
31.82
27.97
23.92
19.83
15.81
12.01
8.34
4.63
0.59
-3.91
-8.77
-13.58
-17.78
-20.97
-23.10
-24.64
-26.41
-29.20
-33.43
-38.99
-45.36
-51.84
-57.88
-63.22
-67.91
-72.27
-76.90
-82.73
-90.67
-101.27
-113.87
-126.33
-135.23
-136.78
-128.26
-109.09
-81.25
-48.60
-15.64
13.89
37.78
55.40
67.19
73.97
76.46
75.18
70.74
63.96
55.99
48.09
41.37
36.54
33.76
32.83
33.42
35.20
37.95
41.46
45.41
49.33
52.61
54.70
55.13
53.75
50.61
45.94
40.13
33.59
26.82
20.25
14.22
8.85
4.03
-0.59
-5.43
-10.88
-17.11
-23.96
-30.98
-37.58
-43.27
-47.85
-51.47
-54.65
-58.12
-62.70
-68.99
-77.19
-86.74
-96.19
-103.25
-105.28
-100.07
-86.60
-65.61
-39.39
-11.20
15.70
38.83
56.91
69.71
77.57
81.04
80.62
76.86
70.43
62.32
53.72
45.83
39.53
35.25
32.93
32.16
32.44
33.39
34.82
36.62
38.69
40.75
42.34
42.95
42.14
39.77
35.96
31.08
25.51
19.68
13.88
8.32
3.15
-1.70
-6.47
-11.54
-17.20
-23.47
-30.00
-36.15
-41.38
-45.45
-48.61
-51.42
-54.55
-58.59
-64.01
-71.14
-79.92
-89.52
-98.13
-103.13
-101.76
-92.25
-74.63
-50.87
-24.24
1.80
24.63
42.94
56.53
65.82
71.25
73.20
72.01
68.24
62.69
56.23
49.67
43.54
38.15
33.69
30.33
28.29
27.81
28.93
31.55
35.17
39.12
42.59
44.78
45.11
43.28
39.37
33.81
27.31
20.69
14.57
9.22
4.40
-0.44
-5.93
-12.36
-19.53
-26.78
-33.29
-38.49
-42.26
-45.02
-47.55
-50.76
-55.47
-62.10
-70.47
-79.54
-87.47
-91.93
-90.73
-82.54
-67.45
-47.04
-23.86
-0.69
20.17
37.31
50.18
58.76
63.33
64.17
61.68
56.40
49.14
40.89
32.69
25.44
19.71
15.72
13.34
12.28
12.18
12.74
13.73
14.99
16.36
17.61
18.46
18.57
17.64
15.43
11.87
7.13
1.57
-4.34
-10.17
-15.57
-20.47
-24.93
-29.30
-34.04
-39.74
-46.86
-55.51
-65.09
-74.06
-80.30
-81.57
-76.37
-64.42
-46.89
-26.06
-4.50
15.56
32.69
46.22
56.06
62.26
64.88
63.99
59.83
53.04
44.59
35.67
27.38
20.49
15.24
11.48
8.85
7.09
6.20
6.37
7.68
9.91
12.45
14.35
14.71
12.91
8.95
3.36
-3.00
-9.25
-14.84
-19.72
-24.28
-29.11
-34.77
-41.71
-50.01
-59.48
-69.36
-78.22
-84.08
-84.79
-78.76
-65.57
-46.36
-23.53
-0.09
21.34
39.01
52.16
60.79
65.15
65.53
62.29
56.06
47.79
38.70
29.88
22.11
15.70
10.62
6.67
3.81
2.20
2.09
3.57
6.34
9.62
12.27
13.17
11.57
7.38
1.21
-5.91
-12.92
-19.09
-24.24
-28.81
-33.68
-39.83
-48.01
-58.25
-69.52
-79.77
-86.30
-86.58
-79.17
-64.26
-43.68
-20.27
2.96
23.63
40.36
52.63
60.47
64.23
64.34
61.37
56.04
49.14
41.47
33.72
26.44
19.96
14.50
10.23
7.27
5.74
5.66
6.81
8.70
10.56
11.49
10.74
7.93
3.19
-2.91
-9.63
-16.31
-22.59
-28.58
-34.84
-42.18
-51.25
-61.92
-73.04
-82.26
-86.78
-84.27
-73.73
-56.00
-33.51
-9.41
13.37
32.84
48.04
58.79
65.27
67.75
66.60
62.32
55.65
47.42
38.42
29.35
20.80
13.28
7.35
3.50
1.95
2.54
4.67
7.44
9.85
11.11
10.76
8.76
5.38
0.98
-4.00
-9.30
-14.82
-20.70
-27.37
-35.35
-44.92
-55.75
-66.52
-75.00
-78.58
-75.18
-64.03
-46.03
-23.51
0.55
23.35
42.90
58.15
68.67
74.42
75.51
72.30
65.56
56.43
46.27
36.31
27.39
19.89
13.88
9.30
6.12
4.38
4.00
4.70
5.88
6.76
6.58
4.85
1.53
-2.99
-8.08
-13.13
-17.81
-22.12
-26.42
-31.30
-37.42
-45.31
-55.03
-65.88
-76.22
-83.66
-85.61
-80.12
-66.72
-46.63
-22.49
2.45
25.33
44.22
58.33
67.55
72.18
72.58
69.22
62.85
54.48
45.35
36.61
29.05
23.02
18.50
15.29
13.23
12.29
12.43
13.55
15.24
16.82
17.48
16.56
13.78
9.38
3.97
-1.75
-7.25
-12.38
-17.46
-23.07
-29.94
-38.55
-48.92
-60.21
-70.68
-77.94
-79.51
-73.68
-60.24
-40.65
-17.67
5.51
26.14
42.50
53.94
60.60
62.92
61.51
57.02
50.25
42.20
33.89
26.21
19.72
14.60
10.76
7.99
6.21
5.47
5.89
7.41
9.64
11.82
13.00
12.37
9.65
5.14
-0.42
-6.25
-11.84
-17.25
-23.00
-29.80
-38.25
-48.48
-59.85
-70.91
-79.57
-83.54
-80.96
-71.03
-54.43
-33.14
-9.90
12.47
31.85
47.07
57.72
63.97
66.10
64.45
59.37
51.50
41.72
31.19
21.13
12.57
6.12
1.96
-0.15
-0.67
-0.07
1.14
2.53
3.69
4.22
3.79
2.28
-0.25
-3.57
-7.41
-11.68
-16.53
-22.47
-30.06
-39.62
-50.68
-61.81
-70.76
-75.06
-72.79
-63.31
-47.55
-27.63
-6.24
14.13
31.66
45.29
54.61
59.57
60.38
57.43
51.44
43.34
34.15
24.92
16.47
9.48
4.35
1.20
-0.15
-0.16
0.49
1.10
1.10
0.22
-1.54
-3.99
-6.90
-10.11
-13.60
-17.54
-22.20
-28.00
-35.38
-44.63
-55.54
-67.07
-77.23
-83.43
-83.18
-74.99
-58.91
-36.74
-11.46
13.65
35.82
53.34
65.59
72.66
74.99
73.16
67.78
59.62
49.66
39.01
28.77
19.88
13.01
8.40
5.93
5.10
5.25
5.64
5.70
5.14
3.92
2.17
0.05
-2.34
-5.12
-8.47
-12.64
-17.91
-24.58
-32.89
-42.78
-53.64
-63.92
-71.43
-73.73
-69.03
-56.86
-38.36
-15.96
7.34
28.85
46.73
60.09
68.82
73.14
73.41
70.07
63.65
54.94
44.87
34.52
24.93
17.00
11.31
8.05
6.96
7.40
8.52
9.47
9.64
8.70
6.67
3.76
0.22
-3.75
-8.10
-12.87
-18.22
-24.48
-32.07
-41.31
-52.06
-63.35
-73.29
-79.37
-79.18
-71.25
-55.73
-34.33
-9.93
14.33
35.89
53.19
65.61
73.19
76.15
74.81
69.62
61.34
51.18
40.60
31.09
23.68
18.78
16.10
14.98
14.84
15.31
16.35
18.03
20.19
22.29
23.46
22.79
19.73
14.32
7.16
-0.77
-8.55
-15.59
-21.89
-27.82
-34.08
-41.35
-50.15
-60.72
-72.71
-84.99
-95.54
-101.72
-100.90
-91.40
-73.22
-48.28
-19.90
8.21
33.00
52.74
67.00
76.17
80.82
81.40
78.22
71.74
62.87
52.95
43.48
35.75
30.50
27.75
26.99
27.47
28.59
30.06
31.87
34.06
36.56
38.99
40.75
41.18
39.80
36.50
31.52
25.47
19.01
12.82
7.21
2.16
-2.74
-8.04
-14.14
-21.09
-28.44
-35.46
-41.42
-45.88
-48.94
-51.12
-53.18
-55.92
-60.01
-65.95
-73.84
-83.19
-92.62
-99.88
-102.25
-97.34
-84.09
-63.23
-37.22
-9.49
16.61
38.66
55.51
67.10
73.95
76.65
75.73
71.68
65.12
56.91
48.04
39.52
32.23
26.76
23.42
22.14
22.67
24.61
27.42
30.60
33.64
36.14
37.78
38.37
37.82
36.12
33.32
29.56
25.05
20.09
14.97
9.93
5.09
0.47
-4.06
-8.59
-13.19
-17.88
-22.66
-27.54
-32.48
-37.37
-41.98
-46.05
-49.46
-52.38
-55.35
-59.24
-64.83
-72.41
-81.32
-89.79
-95.28
-95.17
-87.70
-72.63
-51.43
-26.75
-1.65
21.28
40.35
54.81
64.61
69.98
71.36
69.35
64.74
58.49
51.54
44.63
38.22
32.52
27.64
23.75
21.06
19.87
20.32
22.30
25.41
28.95
32.04
33.87
33.87
31.89
28.23
23.48
18.32
13.24
8.33
3.38
-1.97
-8.03
-14.80
-21.97
-29.04
-35.48
-40.99
-45.59
-49.68
-53.91
-59.07
-65.69
-73.78
-82.44
-89.89
-93.82
-92.06
-83.32
-67.72
-46.85
-23.26
0.28
21.40
38.71
51.69
60.48
65.51
67.30
66.36
63.15
58.18
51.97
45.08
38.05
31.42
25.58
20.92
17.61
15.73
15.24
15.97
17.56
19.54
21.35
22.48
22.57
21.46
19.18
15.81
11.49
6.30
0.42
-5.91
-12.36
-18.58
-24.37
-29.73
-34.83
-39.95
-45.45
-51.68
-58.96
-67.34
-76.21
-84.21
-89.22
-89.00
-81.98
-67.94
-48.15
-25.17
-1.87
19.32
36.91
50.37
59.80
65.55
67.91
67.19
63.74
58.11
51.01
43.22
35.54
28.62
22.90
18.62
15.84
14.42
14.15
14.74
15.89
17.24
18.44
19.15
19.04
17.90
15.60
12.09
7.45
1.88
-4.30
-10.64
-16.61
-21.84
-26.23
-30.10
-34.09
-38.96
-45.39
-53.58
-63.19
-73.09
-81.57
-86.59
-86.18
-79.12
-65.26
-45.78
-22.87
0.73
22.54
40.75
54.50
63.70
68.73
70.08
68.27
63.78
57.26
49.50
41.50
34.18
28.18
23.74
20.68
18.61
17.16
16.07
15.30
14.94
15.03
15.43
15.82
15.66
14.43
11.74
7.53
2.09
-4.00
-10.11
-15.76
-20.81
-25.41
-29.94
-34.80
-40.46
-47.28
-55.43
-64.60
-73.79
-81.13
-84.38
-81.54
-71.65
-55.37
-34.72
-12.52
8.51
26.46
40.43
50.31
56.38
58.92
58.21
54.61
48.72
41.38
33.59
26.32
20.25
15.77
12.82
11.07
10.08
9.49
9.24
9.44
10.34
11.93
13.92
15.66
16.39
15.54
12.90
8.74
3.60
-1.97
-7.53
-12.88
-18.01
-23.10
-28.45
-34.53
-41.84
-50.67
-60.70
-70.80
-78.94
-82.78
-80.33
-70.77
-54.77
-34.37
-12.25
9.02
27.61
42.61
53.80
61.28
65.13
65.46
62.49
56.73
49.06
40.54
32.25
25.00
19.24
15.01
12.05
9.99
8.51
7.53
7.18
7.63
8.82
10.31
11.29
10.87
8.51
4.28
-1.12
-6.72
-11.77
-15.99
-19.72
-23.55
-28.05
-33.65
-40.48
-48.42
-56.97
-65.05
-71.03
-72.97
-69.19
-58.99
-43.05
-23.24
-2.12
17.89
35.07
48.52
57.98
63.47
65.05
62.89
57.44
49.58
40.49
31.56
23.83
17.82
13.46
10.25
7.66
5.41
3.61
2.63
2.79
4.03
5.83
7.33
7.61
6.12
2.84
-1.71
-6.79
-11.68
-16.00
-19.78
-23.45
-27.65
-33.00
-39.92
-48.32
-57.35
-65.40
-70.39
-70.33
-64.05
-51.73
-34.83
-15.72
3.16
19.98
33.77
44.25
51.39
55.19
55.55
52.59
46.87
39.44
31.57
24.33
18.23
13.25
9.07
5.42
2.39
0.32
-0.44
0.21
1.83
3.65
4.76
4.46
2.52
-0.83
-5.02
-9.35
-13.25
-16.51
-19.33
-22.34
-26.36
-32.13
-39.88
-49.03
-58.05
-64.76
-66.97
-63.08
-52.77
-37.08
-18.10
1.62
19.81
34.92
46.22
53.56
57.10
57.16
54.13
48.60
41.42
33.55
25.84
18.84
12.73
7.43
2.89
-0.73
-3.03
-3.60
-2.40
0.07
2.83
4.75
5.01
3.40
0.33
-3.42
-7.19
-10.70
-14.12
-17.91
-22.58
-28.49
-35.78
-44.28
-53.26
-61.38
-66.77
-67.35
-61.64
-49.36
-31.78
-11.33
9.12
27.16
41.39
51.41
57.48
60.05
59.49
56.19
50.66
43.67
36.05
28.57
21.66
15.56
10.32
6.05
2.93
1.24
1.01
2.02
3.68
5.19
5.76
4.92
2.62
-0.78
-4.66
-8.48
-11.94
-15.17
-18.70
-23.29
-29.63
-37.95
-47.72
-57.49
-65.10
-68.23
-65.16
-55.41
-39.94
-20.88
-0.87
17.68
33.11
44.68
52.29
56.16
56.59
53.92
48.62
41.41
33.13
24.69
16.81
9.98
4.44
0.26
-2.61
-4.27
-4.91
-4.84
-4.39
-3.89
-3.62
-3.75
-4.41
-5.77
-7.91
-10.87
-14.63
-19.24
-24.86
-31.66
-39.55
-47.84
-55.11
-59.41
-58.89
-52.50
-40.49
-24.36
-6.42
10.97
26.04
37.85
46.18
51.17
53.00
51.76
47.57
40.75
32.05
22.54
13.41
5.72
0.05
-3.56
-5.56
-6.55
-7.07
-7.45
-7.76
-8.04
-8.36
-8.91
-9.91
-11.54
-13.86
-16.94
-20.99
-26.36
-33.51
-42.45
-52.51
-61.98
-68.48
-69.62
-63.89
-51.33
-33.52
-13.14
7.02
24.80
39.08
49.60
56.48
59.83
59.55
55.63
48.41
38.88
28.45
18.62
10.53
4.66
0.84
-1.45
-2.79
-3.63
-4.15
-4.46
-4.72
-5.13
-5.94
-7.42
-9.71
-12.99
-17.47
-23.38
-30.95
-40.17
-50.49
-60.66
-68.74
-72.61
-70.53
-61.80
-47.11
-28.34
-8.04
11.37
28.18
41.51
51.14
57.12
59.47
58.18
53.41
45.78
36.42
26.81
18.35
12.04
8.17
6.42
6.03
6.14
6.09
5.56
4.50
3.06
1.40
-0.52
-2.92
-6.15
-10.62
-16.74
-24.76
-34.72
-46.16
-57.91
-68.10
-74.39
-74.61
-67.54
-53.43
-34.01
-11.98
9.73
28.83
44.02
54.89
61.64
64.58
64.04
60.30
53.82
45.40
36.12
27.21
19.80
14.61
11.76
10.85
11.15
11.75
11.97
11.39
9.88
7.50
4.40
0.71
-3.48
-8.15
-13.40
-19.49
-26.81
-35.79
-46.63
-58.88
-71.19
-81.32
-86.56
-84.57
-74.21
-56.05
-32.28
-6.03
19.49
41.85
59.69
72.61
80.76
84.49
84.25
80.54
74.19
66.28
58.10
50.79
45.16
41.50
39.57
38.85
38.81
39.08
39.67
40.71
42.28
44.12
45.52
45.58
43.57
39.33
33.25
26.26
19.34
13.13
7.69
2.64
-2.68
-8.79
-15.86
-23.63
-31.52
-38.85
-45.11
-50.16
-54.28
-58.10
-62.53
-68.43
-76.43
-86.51
-97.69
-107.96
-114.53
-114.55
-106.08
-88.85
-64.47
-36.02
-7.02
19.51
41.64
58.61
70.48
77.58
80.32
79.14
74.67
67.90
60.11
52.65
46.68
42.86
41.23
41.36
42.55
44.17
45.83
47.51
49.32
51.25
53.00
53.93
53.31
50.63
45.85
39.46
32.34
25.30
18.87
12.98
7.16
0.81
-6.40
-14.35
-22.48
-30.08
-36.58
-41.80
-45.96
-49.64
-53.50
-58.20
-64.32
-72.01
-80.71
-89.02
-94.69
-95.21
-88.64
-74.39
-53.59
-28.78
-3.13
20.51
40.30
55.49
66.12
72.58
75.17
74.18
70.00
63.40
55.56
47.82
41.30
36.65
33.88
32.56
32.14
32.30
32.98
34.32
36.40
39.02
41.72
43.84
44.79
44.17
41.82
37.86
32.64
26.63
20.40
14.47
9.12
4.30
-0.37
-5.35
-10.94
-16.99
-22.96
-28.16
-32.09
-34.75
-36.74
-38.96
-42.34
-47.55
-54.71
-63.38
-72.47
-80.37
-85.20
-85.22
-79.25
-67.15
-49.91
-29.39
-7.93
12.31
29.65
43.06
52.13
56.94
57.87
55.65
51.14
45.33
39.09
33.11
27.88
23.71
20.79
19.23
19.04
20.13
22.24
24.96
27.78
30.17
31.64
31.89
30.76
28.39
25.09
21.20
17.04
12.73
8.24
3.47
-1.63
-7.00
-12.42
-17.60
-22.31
-26.44
-30.00
-33.15
-36.21
-39.59
-43.76
-49.04
-55.21
-61.32
-65.73
-66.55
-62.23
-52.27
-37.47
-19.76
-1.53
15.02
28.48
38.35
44.79
48.25
49.11
47.60
43.91
38.43
31.78
24.88
18.68
13.91
10.90
9.57
9.53
10.29
11.48
12.90
14.40
15.88
17.13
17.88
17.84
16.86
14.89
12.04
8.52
4.52
0.22
-4.21
-8.61
-12.85
-16.76
-20.39
-23.84
-27.44
-31.60
-36.65
-42.67
-49.20
-55.21
-59.22
-59.62
-55.23
-45.72
-31.84
-15.18
2.25
18.58
32.48
43.23
50.62
54.62
55.33
52.88
47.72
40.58
32.52
24.76
18.25
13.62
10.92
9.81
9.71
9.99
10.21
10.10
9.60
8.65
7.14
4.93
1.82
-2.27
-7.25
-12.81
-18.56
-24.15
-29.33
-34.08
-38.49
-42.72
-47.02
-51.67
-57.06
-63.50
-71.02
-78.99
-86.07
-90.36
-89.97
-83.77
-71.81
-55.45
-36.83
-18.12
-0.95
13.83
25.91
35.20
41.42
44.30
43.78
40.27
34.71
28.32
22.14
16.87
12.73
9.61
7.39
6.08
5.77
6.57
8.39
10.82
13.20
14.73
14.68
12.72
8.97
4.05
-1.23
-6.12
-10.26
-13.76
-17.12
-20.99
-26.00
-32.51
-40.47
-49.20
-57.34
-63.02
-64.27
-59.75
-49.23
-33.83
-15.71
2.60
18.95
31.98
41.20
46.77
49.20
49.04
46.85
43.06
38.11
32.34
26.20
20.14
14.64
10.15
6.95
5.12
4.51
4.82
5.69
6.76
7.61
7.82
6.97
4.83
1.40
-2.98
-7.76
-12.48
-16.87
-21.15
-25.87
-31.79
-39.46
-48.90
-59.27
-68.91
-75.64
-77.40
-72.87
-61.98
-45.93
-26.87
-7.17
11.15
26.79
39.13
48.04
53.54
55.74
54.83
51.27
45.79
39.33
32.78
26.72
21.42
16.81
12.79
9.39
6.88
5.59
5.70
6.95
8.71
10.01
10.05
8.39
5.11
0.77
-3.93
-8.44
-12.56
-16.47
-20.70
-25.91
-32.71
-41.36
-51.58
-62.35
-71.88
-78.01
-78.74
-72.94
-60.77
-43.71
-24.10
-4.45
13.18
27.59
38.36
45.61
49.64
50.79
49.42
46.00
41.23
35.90
30.80
26.50
23.21
20.82
19.10
17.85
17.07
16.87
17.36
18.47
19.79
20.66
20.34
18.29
14.38
8.92
2.54
-4.00
-10.14
-15.69
-20.91
-26.44
-33.14
-41.70
-52.25
-63.96
-74.98
-82.77
-84.83
-79.51
-66.65
-47.72
-25.28
-2.21
18.96
36.62
50.07
59.31
64.74
66.89
66.32
63.56
59.14
53.55
47.35
41.10
35.35
30.55
26.96
24.68
23.55
23.34
23.75
24.49
25.25
25.76
25.79
25.13
23.65
21.29
18.01
13.80
8.70
2.79
-3.78
-10.82
-18.11
-25.46
-32.68
-39.58
-46.10
-52.27
-58.40
-64.98
-72.28
-79.96
-86.74
-90.56
-89.16
-80.96
-65.78
-45.09
-21.50
2.08
23.23
40.55
53.51
62.19
66.86
67.83
65.53
60.58
53.88
46.44
39.22
32.94
28.04
24.67
22.74
22.11
22.55
23.83
25.60
27.49
29.08
30.04
30.16
29.38
27.80
25.51
22.55
18.86
14.31
8.83
2.50
-4.46
-11.70
-18.85
-25.64
-31.96
-37.93
-43.85
-50.24
-57.51
-65.75
-74.32
-81.76
-85.99
-84.95
-77.33
-63.18
-44.01
-22.32
-0.87
18.14
33.46
44.78
52.37
56.76
58.42
57.76
55.20
51.23
46.36
41.12
35.98
31.28
27.18
23.81
21.17
19.27
18.15
17.83
18.30
19.40
20.77
21.87
22.09
20.91
18.12
13.87
8.67
3.23
-1.85
-6.19
-9.82
-13.17
-16.89
-21.71
-28.16
-36.36
-45.84
-55.38
-63.18
-67.26
-65.96
-58.60
-45.67
-28.75
-10.08
8.19
24.46
37.82
47.92
54.70
58.07
58.02
54.75
48.81
41.18
32.98
25.27
18.73
13.60
9.72
6.87
4.90
3.76
3.49
4.06
5.19
6.38
6.99
6.46
4.50
1.19
-3.03
-7.62
-12.09
-16.24
-20.17
-24.25
-29.03
-34.95
-42.19
-50.34
-58.34
-64.53
-67.05
-64.40
-56.02
-42.54
-25.65
-7.60
9.53
24.25
35.84
44.13
49.24
51.28
50.38
46.86
41.25
34.34
26.96
19.88
13.66
8.62
4.92
2.48
1.19
0.81
1.03
1.52
1.92
1.92
1.22
-0.32
-2.80
-6.12
-10.10
-14.49
-19.10
-23.91
-29.15
-35.20
-42.38
-50.54
-58.84
-65.70
-69.13
-67.40
-59.67
-46.39
-29.19
-10.31
7.98
24.04
36.90
46.21
51.95
54.24
53.26
49.41
43.33
35.88
28.02
20.62
14.30
9.43
6.05
4.01
3.02
2.73
2.76
2.74
2.32
1.16
-0.93
-3.96
-7.75
-11.94
-16.15
-20.19
-24.27
-28.98
-35.11
-43.11
-52.64
-62.31
-69.95
-73.16
-70.24
-60.69
-45.45
-26.50
-6.25
13.09
29.91
43.26
52.72
58.15
59.67
57.63
52.64
45.55
37.30
28.82
20.89
14.08
8.72
4.98
2.80
1.96
2.10
2.73
3.34
3.49
2.95
1.62
-0.47
-3.26
-6.67
-10.64
-15.16
-20.28
-26.31
-33.70
-42.80
-53.42
-64.47
-73.81
-78.83
-77.19
-67.87
-51.56
-30.54
-7.84
13.60
31.79
45.77
55.46
61.20
63.36
62.34
58.56
52.62
45.30
37.40
29.59
22.40
16.21
11.37
8.17
6.77
7.11
8.66
10.59
11.98
12.07
10.51
7.40
3.06
-2.09
-7.72
-13.65
-19.83
-26.41
-33.71
-42.09
-51.67
-61.94
-71.50
-78.20
-79.68
-74.22
-61.49
-42.72
-20.37
2.66
23.87
41.64
55.23
64.53
69.57
70.52
67.67
61.71
53.78
45.24
37.38
30.98
26.24
22.85
20.32
18.29
16.74
15.83
15.80
16.65
17.98
19.09
19.02
17.04
12.80
6.58
-0.87
-8.56
-15.63
-21.71
-26.99
-32.06
-37.74
-44.79
-53.66
-64.24
-75.59
-85.88
-92.61
-93.25
-86.11
-71.06
-49.71
-24.95
-0.00
22.49
41.02
55.12
64.92
70.68
72.50
70.49
65.02
57.02
47.84
38.97
31.60
26.25
22.80
20.67
19.25
18.27
17.79
18.12
19.37
21.28
23.09
23.73
22.31
18.37
12.15
4.49
-3.56
-11.05
-17.48
-22.90
-27.87
-33.16
-39.60
-47.75
-57.69
-68.68
-79.19
-86.91
-89.38
-84.75
-72.38
-53.30
-29.86
-5.04
18.47
38.81
55.11
67.14
74.86
78.22
77.19
72.11
63.84
53.83
43.73
34.90
28.12
23.42
20.38
18.41
17.19
16.64
16.91
18.06
19.84
21.65
22.64
21.99
19.26
14.45
8.06
0.88
-6.37
-13.20
-19.53
-25.59
-31.80
-38.64
-46.52
-55.65
-65.87
-76.40
-85.59
-91.23
-91.06
-83.52
-68.48
-47.43
-23.08
1.47
23.65
41.94
55.85
65.55
71.25
73.06
71.03
65.46
57.21
47.62
38.28
30.48
24.92
21.60
20.05
19.57
19.62
19.91
20.38
21.07
21.95
22.83
23.32
22.87
20.95
17.26
11.83
5.12
-2.14
-9.17
-15.47
-20.97
-26.02
-31.22
-37.27
-44.69
-53.71
-64.13
-75.00
-84.71
-91.01
-91.69
-85.15
-71.12
-50.84
-26.78
-1.86
21.26
40.82
55.94
66.46
72.51
74.27
72.06
66.46
58.40
49.12
39.95
31.98
25.89
21.91
19.85
19.32
19.93
21.35
23.33
25.64
28.05
30.21
31.64
31.83
30.27
26.64
20.85
13.22
4.37
-4.85
-13.61
-21.34
-27.85
-33.39
-38.47
-43.81
-50.07
-57.78
-67.04
-77.28
-87.06
-94.11
-95.93
-90.52
-77.20
-57.01
-32.45
-6.69
17.29
37.48
52.94
63.57
69.67
71.67
70.02
65.29
58.28
50.02
41.64
34.08
28.03
23.70
20.97
19.47
18.77
18.55
18.65
19.08
19.80
20.70
21.41
21.42
20.17
17.25
12.57
6.43
-0.60
-7.83
-14.74
-21.11
-27.01
-32.66
-38.32
-44.19
-50.58
-57.89
-66.36
-75.73
-84.76
-91.23
-92.51
-86.45
-72.40
-51.57
-26.76
-1.35
21.76
40.78
55.09
64.81
70.30
71.85
69.80
64.67
57.33
48.92
40.65
33.46
27.92
24.11
21.81
20.62
20.15
20.16
20.54
21.25
22.28
23.42
24.32
24.47
23.33
20.52
15.94
9.81
2.63
-4.93
-12.25
-18.91
-24.82
-30.30
-35.92
-42.47
-50.57
-60.42
-71.55
-82.59
-91.50
-95.94
-93.95
-84.51
-67.99
-46.01
-21.09
3.99
26.84
45.75
59.78
68.62
72.37
71.41
66.38
58.23
48.22
37.76
28.18
20.50
15.17
12.03
10.58
10.22
10.57
11.55
13.22
15.56
18.12
20.17
20.72
19.11
15.19
9.44
2.81
-3.71
-9.48
-14.37
-18.79
-23.45
-29.13
-36.45
-45.57
-56.09
-66.86
-76.03
-81.35
-80.77
-73.19
-58.78
-39.11
-16.67
5.87
26.28
43.14
55.75
63.87
67.46
66.73
62.17
54.73
45.64
36.24
27.53
20.13
14.17
9.53
6.06
3.74
2.67
2.91
4.30
6.31
8.17
9.07
8.39
6.00
2.17
-2.48
-7.29
-11.84
-16.02
-20.12
-24.61
-30.12
-37.23
-46.15
-56.54
-67.14
-75.88
-80.27
-78.19
-68.72
-52.55
-31.81
-9.38
11.98
30.34
44.70
54.76
60.51
62.09
59.78
54.16
46.14
36.85
27.39
18.70
11.40
5.90
2.36
0.73
0.72
1.86
3.53
5.18
6.31
6.58
5.76
3.70
0.48
-3.65
-8.32
-13.15
-17.98
-23.06
-28.99
-36.44
-45.78
-56.56
-67.32
-75.80
-79.55
-76.73
-66.71
-50.37
-29.75
-7.52
13.75
32.15
46.52
56.35
61.60
62.54
59.68
53.80
45.86
36.93
27.94
19.67
12.63
7.11
3.27
1.11
0.52
1.15
2.44
3.72
4.28
3.66
1.72
-1.35
-5.20
-9.46
-13.89
-18.51
-23.54
-29.41
-36.69
-45.89
-57.08
-69.55
-81.51
-90.36
-93.23
-88.04
-74.33
-53.48
-28.40
-2.52
21.15
40.68
55.23
64.73
69.49
69.88
66.46
60.02
51.73
42.86
34.54
27.49
21.93
17.78
14.91
13.31
13.00
13.91
15.60
17.28
17.99
16.96
13.83
8.83
2.56
-4.26
-11.08
-17.63
-23.96
-30.38
-37.40
-45.66
-55.61
-67.12
-79.08
-89.28
-94.90
-93.36
-83.34
-65.39
-41.72
-15.57
9.94
32.49
50.84
64.51
73.32
77.24
76.32
71.09
62.67
52.64
42.66
34.05
27.49
23.02
20.26
18.70
18.05
18.19
19.18
20.94
23.15
25.14
26.07
25.19
22.07
16.78
9.83
2.00
-5.92
-13.43
-20.41
-27.20
-34.43
-42.84
-52.98
-64.91
-77.81
-89.88
-98.62
-101.33
-96.04
-82.13
-60.64
-34.08
-5.69
21.40
44.81
63.13
75.88
83.19
85.56
83.72
78.55
71.02
62.22
53.22
45.01
38.42
33.88
31.46
30.85
31.55
33.01
34.87
36.85
38.68
40.00
40.29
39.08
36.15
31.70
26.22
20.27
14.18
7.86
1.00
-6.65
-14.98
-23.51
-31.53
-38.46
-44.13
-48.96
-53.73
-59.44
-66.90
-76.33
-87.14
-97.78
-105.92
-108.96
-104.79
-92.45
-72.52
-47.12
-19.24
7.95
31.87
50.85
64.21
71.98
74.57
72.64
67.04
58.84
49.29
39.76
31.40
25.06
21.09
19.39
19.56
21.08
23.52
26.42
29.41
32.07
33.97
34.72
34.01
31.68
27.71
22.24
15.52
7.99
0.17
-7.43
-14.43
-20.67
-26.26
-31.51
-36.81
-42.63
-49.42
-57.62
-67.38
-78.13
-88.40
-95.86
-97.85
-92.33
-78.74
-58.27
-33.57
-7.85
16.11
36.50
52.60
64.31
71.78
75.16
74.64
70.69
64.14
56.19
48.04
40.75
34.95
30.88
28.46
27.50
27.78
29.12
31.26
33.75
35.97
37.21
36.85
34.66
30.86
26.01
20.74
15.42
10.06
4.31
-2.22
-9.68
-17.79
-25.93
-33.42
-39.80
-45.05
-49.62
-54.26
-59.81
-66.92
-75.75
-85.64
-95.03
-101.61
-102.84
-96.79
-82.80
-61.87
-36.39
-9.44
16.12
38.14
55.51
67.90
75.40
78.32
77.09
72.41
65.26
56.87
48.45
40.96
35.01
30.79
28.27
27.28
27.65
29.18
31.58
34.42
37.10
38.92
39.31
37.93
34.80
30.33
25.13
19.86
14.94
10.40
5.90
0.89
-5.05
-11.98
-19.54
-27.06
-33.92
-39.75
-44.63
-49.04
-53.75
-59.55
-66.95
-75.81
-85.02
-92.58
-95.95
-92.78
-81.88
-63.70
-40.31
-14.77
9.86
31.24
48.20
60.46
68.32
72.13
72.29
69.23
63.62
56.37
48.49
40.91
34.29
28.98
25.16
22.88
22.13
22.83
24.66
27.11
29.53
31.35
32.14
31.76
30.28
27.77
24.24
19.60
13.75
6.80
-0.92
-8.82
-16.31
-23.02
-28.84
-33.96
-38.69
-43.41
-48.50
-54.40
-61.43
-69.58
-78.09
-85.31
-88.91
-86.60
-77.07
-60.59
-39.09
-15.51
7.13
26.64
41.95
52.94
59.91
63.10
62.61
58.61
51.64
42.81
33.55
25.25
18.83
14.55
12.13
11.03
10.79
11.19
12.19
13.78
15.82
17.96
19.70
20.40
19.53
16.67
11.77
5.13
-2.57
-10.42
-17.60
-23.66
-28.65
-33.10
-37.80
-43.50
-50.63
-59.19
-68.55
-77.46
-84.15
-86.63
-83.26
-73.26
-57.15
-36.64
-14.19
7.78
27.37
43.59
56.11
64.89
69.85
70.87
67.97
61.55
52.58
42.38
32.33
23.58
16.79
12.16
9.47
8.42
8.59
9.60
11.12
12.77
14.22
15.08
14.94
13.48
10.46
5.91
0.21
-6.09
-12.33
-18.07
-23.23
-28.06
-33.09
-38.87
-45.85
-54.28
-64.06
-74.65
-84.74
-92.41
-95.42
-91.90
-81.07
-63.64
-41.70
-17.94
5.09
25.63
42.76
56.16
65.68
71.13
72.30
69.30
62.70
53.63
43.55
33.92
25.87
20.02
16.35
14.46
13.78
13.85
14.46
15.61
17.34
19.39
21.18
21.91
20.89
17.79
12.84
6.71
0.24
-5.88
-11.30
-16.22
-21.18
-26.93
-34.22
-43.60
-55.24
-68.64
-82.42
-94.39
-101.86
-102.39
-94.47
-78.26
-55.49
-29.13
-2.47
21.71
41.67
56.67
66.70
72.06
73.10
70.21
64.00
55.40
45.65
36.06
27.68
21.05
16.23
12.87
10.57
9.14
8.64
9.28
11.12
13.86
16.70
18.55
18.33
15.47
10.11
3.07
-4.48
-11.50
-17.52
-22.74
-27.89
-33.88
-41.50
-51.08
-62.26
-73.96
-84.36
-91.11
-91.90
-85.18
-70.72
-49.91
-25.41
-0.33
22.53
41.38
55.39
64.50
68.99
69.24
65.72
59.19
50.64
41.22
31.93
23.42
16.00
9.83
5.05
1.96
0.89
1.90
4.61
8.18
11.44
13.35
13.28
11.17
7.45
2.79
-2.20
-7.19
-12.17
-17.42
-23.44
-30.78
-39.86
-50.57
-61.99
-72.33
-79.18
-80.15
-73.74
-59.90
-40.16
-17.21
5.88
26.45
42.79
54.18
60.68
62.71
60.85
55.75
48.15
39.00
29.41
20.49
13.14
7.86
4.68
3.26
3.07
3.61
4.46
5.31
5.88
5.92
5.13
3.29
0.30
-3.79
-8.81
-14.56
-20.99
-28.27
-36.77
-46.72
-57.87
-69.09
-78.35
-83.13
-81.19
-71.47
-54.52
-32.47
-8.36
14.76
34.55
49.77
60.14
65.91
67.47
65.16
59.29
50.40
39.41
27.62
16.48
7.35
1.13
-1.94
-2.23
-0.55
2.06
4.61
6.35
6.88
6.10
4.20
1.48
-1.87
-5.76
-10.34
-15.88
-22.81
-31.55
-42.35
-54.95
-68.20
-80.03
-87.68
-88.57
-81.05
-65.25
-43.08
-17.70
7.47
29.69
47.37
60.06
67.94
71.42
70.89
66.70
59.38
49.76
39.00
28.40
19.20
12.32
8.16
6.53
6.74
7.87
8.95
9.34
8.74
7.18
4.84
1.86
-1.78
-6.20
-11.59
-18.11
-25.98
-35.45
-46.65
-59.25
-72.06
-82.86
-88.83
-87.29
-76.89
-58.11
-33.41
-6.31
19.64
41.81
58.85
70.51
77.06
78.95
76.69
70.97
62.82
53.53
44.39
36.42
30.10
25.52
22.47
20.76
20.34
21.12
22.91
25.18
27.05
27.54
25.79
21.47
14.81
6.59
-2.21
-10.68
-18.35
-25.34
-32.32
-40.30
-50.31
-62.80
-77.13
-91.34
-102.37
-106.83
-102.12
-87.47
-64.27
-35.72
-5.78
21.95
45.14
62.83
75.10
82.49
85.56
84.78
80.70
74.14
66.21
58.15
51.04
45.55
41.83
39.67
38.72
38.67
39.35
40.63
42.27
43.82
44.69
44.28
42.21
38.46
33.36
27.33
20.74
13.75
6.28
-1.74
-10.23
-18.87
-27.17
-34.65
-41.09
-46.65
-51.82
-57.37
-64.10
-72.54
-82.60
-93.31
-102.65
-107.90
-106.41
-96.41
-77.86
-52.60
-23.81
4.84
30.32
50.77
65.56
75.01
79.67
80.19
77.16
71.31
63.64
55.38
47.77
41.76
37.80
35.85
35.51
36.36
38.09
40.59
43.78
47.45
51.15
54.18
55.73
55.18
52.26
47.21
40.66
33.46
26.40
19.93
14.04
8.34
2.30
-4.50
-12.11
-20.14
-27.94
-34.86
-40.46
-44.72
-48.11
-51.38
-55.54
-61.55
-69.93
-80.43
-91.68
-101.28
-106.37
-104.40
-94.07
-75.80
-51.69
-24.86
1.43
24.66
43.32
56.91
65.49
69.44
69.23
65.55
59.25
51.44
43.29
35.80
29.66
25.16
22.23
20.64
20.15
20.64
22.01
24.12
26.65
29.07
30.69
30.90
29.37
26.20
21.90
17.15
12.52
8.17
3.83
-1.04
-6.94
-13.95
-21.69
-29.28
-35.71
-40.23
-42.60
-43.27
-43.25
-43.83
-46.25
-51.20
-58.52
-66.91
-74.22
-77.84
-75.58
-66.39
-50.77
-30.56
-8.42
13.06
31.91
47.05
58.08
64.96
67.77
66.71
62.26
55.25
46.93
38.66
31.60
26.44
23.31
21.90
21.74
22.40
23.61
25.24
27.19
29.28
31.18
32.49
32.78
31.73
29.22
25.35
20.53
15.28
10.17
5.48
1.20
-2.98
-7.55
-12.85
-18.91
-25.38
-31.78
-37.60
-42.56
-46.73
-50.44
-54.18
-58.53
-64.04
-70.95
-78.99
-87.04
-93.21
-95.22
-91.11
-80.01
-62.57
-40.82
-17.44
4.94
24.49
40.28
52.07
59.90
63.92
64.33
61.54
56.27
49.55
42.48
35.93
30.43
26.11
22.89
20.72
19.60
19.63
20.85
23.05
25.77
28.25
29.75
29.69
27.86
24.48
20.08
15.35
10.86
6.86
3.21
-0.58
-5.09
-10.71
-17.39
-24.61
-31.66
-37.90
-43.12
-47.58
-51.87
-56.71
-62.65
-69.81
-77.67
-84.94
-89.73
-89.97
-84.09
-71.64
-53.51
-31.78
-9.07
12.25
30.48
44.74
54.76
60.59
62.50
60.99
56.82
50.94
44.33
37.74
31.67
26.27
21.68
18.07
15.65
14.55
14.82
16.28
18.53
21.16
23.63
25.50
26.37
25.98
24.25
21.34
17.51
13.09
8.26
3.05
-2.63
-8.81
-15.39
-22.04
-28.38
-34.14
-39.26
-44.01
-48.84
-54.32
-60.89
-68.59
-76.81
-84.12
-88.54
-87.94
-80.83
-67.02
-47.76
-25.49
-2.98
17.41
34.27
47.12
56.05
61.25
62.84
61.00
56.08
48.82
40.35
31.81
24.20
18.15
13.89
11.40
10.48
10.82
12.08
13.92
15.98
17.93
19.45
20.26
20.12
18.84
16.33
12.65
7.98
2.61
-3.17
-9.08
-14.92
-20.56
-25.92
-30.98
-35.78
-40.55
-45.65
-51.60
-58.73
-66.97
-75.43
-82.40
-85.71
-83.39
-74.46
-59.31
-39.66
-17.99
3.16
21.88
37.12
48.55
56.23
60.34
61.08
58.70
53.71
46.87
39.17
31.59
24.95
19.71
15.94
13.46
11.96
11.21
11.04
11.45
12.36
13.64
14.99
15.94
15.95
14.55
11.47
6.78
0.91
-5.53
-11.90
-17.79
-23.11
-28.06
-33.07
-38.61
-45.16
-53.07
-62.40
-72.58
-82.25
-89.29
-91.38
-86.76
-74.94
-56.91
-34.95
-11.86
9.90
28.68
43.67
54.69
61.76
64.98
64.52
60.82
54.65
47.04
39.01
31.40
24.60
18.71
13.63
9.31
5.86
3.59
2.79
3.61
5.75
8.57
11.08
12.30
11.55
8.63
3.92
-1.85
-7.87
-13.53
-18.63
-23.33
-28.11
-33.57
-40.33
-48.79
-58.95
-70.08
-80.57
-88.12
-90.35
-85.52
-73.22
-54.64
-32.18
-8.65
13.47
32.57
47.86
59.14
66.38
69.60
68.96
64.91
58.31
50.32
42.10
34.59
28.26
23.18
19.13
15.90
13.45
12.00
11.79
12.90
15.04
17.54
19.45
19.80
18.02
14.03
8.34
1.77
-4.80
-10.80
-16.12
-21.10
-26.38
-32.70
-40.69
-50.55
-61.93
-73.65
-83.76
-89.89
-89.82
-82.21
-67.18
-46.39
-22.56
1.32
22.79
40.33
53.33
61.80
66.03
66.33
63.15
57.15
49.29
40.65
32.29
24.90
18.83
14.07
10.46
7.90
6.48
6.29
7.37
9.41
11.72
13.35
13.38
11.28
7.09
1.42
-4.91
-11.06
-16.63
-21.73
-26.93
-33.05
-40.83
-50.58
-61.74
-72.82
-81.48
-85.11
-81.66
-70.40
-52.27
-29.74
-5.96
16.18
34.68
48.75
58.40
63.98
65.82
64.07
59.01
51.19
41.57
31.40
21.87
13.89
7.91
3.99
1.98
1.60
2.48
4.09
5.81
6.95
6.97
5.60
2.91
-0.76
-4.99
-9.47
-14.17
-19.38
-25.69
-33.67
-43.62
-55.09
-66.64
-75.98
-80.41
-77.76
-67.11
-49.29
-26.60
-2.17
20.96
40.59
55.56
65.59
70.89
71.91
69.17
63.36
55.35
46.17
36.81
28.08
20.51
14.36
9.77
6.82
5.43
5.40
6.28
7.38
7.93
7.34
5.29
1.86
-2.65
-7.84
-13.41
-19.26
-25.52
-32.55
-40.90
-50.99
-62.76
-75.30
-86.64
-94.09
-94.92
-87.37
-71.37
-48.65
-22.27
4.35
28.37
47.93
62.32
71.52
75.88
75.91
72.26
65.74
57.40
48.37
39.58
31.78
25.30
20.24
16.60
14.40
13.74
14.63
16.80
19.54
21.87
22.70
21.30
17.45
11.55
4.28
-3.57
-11.42
-19.03
-26.52
-34.37
-43.30
-53.97
-66.44
-79.71
-91.52
-98.81
-98.60
-89.14
-70.70
-45.52
-17.16
10.71
35.28
54.98
69.38
78.58
82.88
82.53
77.98
70.07
60.19
50.02
41.14
34.52
30.34
28.06
26.81
25.90
25.10
24.62
24.86
26.02
27.78
29.31
29.55
27.53
22.90
16.00
7.72
-0.82
-8.71
-15.59
-21.70
-27.76
-34.66
-43.19
-53.79
-66.20
-79.34
-91.14
-98.88
-99.79
-91.98
-75.19
-51.11
-22.92
5.67
31.51
52.69
68.53
79.12
84.84
85.96
82.79
75.93
66.55
56.22
46.53
38.58
32.74
28.77
26.07
24.16
22.83
22.22
22.49
23.63
25.29
26.82
27.43
26.35
23.19
18.02
11.35
4.02
-3.12
-9.47
-14.92
-19.89
-25.19
-31.80
-40.45
-51.37
-64.01
-76.81
-87.41
-93.09
-91.48
-81.44
-63.44
-39.58
-12.91
13.37
36.76
55.70
69.46
77.82
80.87
78.90
72.63
63.22
52.22
41.26
31.59
23.90
18.28
14.41
11.96
10.72
10.69
11.89
14.15
16.93
19.39
20.60
19.86
16.86
11.89
5.64
-1.03
-7.40
-13.10
-18.22
-23.27
-29.08
-36.49
-45.96
-57.11
-68.52
-77.85
-82.40
-79.97
-69.56
-51.83
-28.95
-3.91
20.23
41.10
57.25
68.11
73.67
74.27
70.43
62.98
53.07
42.08
31.41
22.18
14.99
9.87
6.54
4.60
3.81
4.15
5.57
7.87
10.50
12.62
13.27
11.83
8.17
2.72
-3.72
-10.34
-16.56
-22.34
-28.07
-34.47
-42.28
-51.84
-62.69
-73.35
-81.51
-84.52
-80.33
-68.24
-49.22
-25.74
-1.01
21.96
40.97
54.90
63.57
67.30
66.66
62.37
55.26
46.26
36.40
26.65
17.85
10.57
5.12
1.59
-0.14
-0.28
0.90
3.05
5.73
8.35
10.17
10.42
8.61
4.56
-1.37
-8.40
-15.63
-22.39
-28.44
-34.19
-40.47
-48.17
-57.77
-68.79
-79.63
-87.80
-90.59
-85.98
-73.40
-54.05
-30.49
-5.88
16.95
36.05
50.53
60.28
65.51
66.61
64.01
58.35
50.53
41.66
32.84
24.89
18.31
13.24
9.63
7.44
6.66
7.25
8.97
11.35
13.58
14.78
14.20
11.53
6.97
1.19
-4.99
-10.83
-16.06
-20.93
-26.12
-32.58
-41.07
-51.79
-63.95
-75.68
-84.32
-87.10
-82.12
-69.02
-49.28
-25.68
-1.47
20.64
38.96
52.87
62.38
67.65
68.85
66.22
60.34
52.31
43.52
35.31
28.66
23.92
20.95
19.31
18.51
18.24
18.39
18.95
19.91
21.08
22.01
22.09
20.61
17.12
11.59
4.54
-3.16
-10.52
-16.94
-22.27
-26.94
-31.75
-37.59
-45.13
-54.54
-65.24
-75.79
-83.94
-87.20
-83.44
-71.78
-52.95
-29.21
-3.69
20.50
41.09
56.93
67.89
74.30
76.60
75.15
70.35
62.86
53.80
44.49
36.18
29.76
25.47
23.03
21.93
21.67
22.03
22.99
24.57
26.58
28.56
29.87
29.82
28.07
24.68
20.08
14.98
9.98
5.40
1.14
-3.19
-8.07
-13.81
-20.41
-27.46
-34.37
-40.51
-45.44
-49.09
-51.84
-54.37
-57.60
-62.42
-69.37
-78.21
-87.70
-95.65
-99.40
-96.64
-86.22
-68.65
-45.96
-21.08
3.05
24.22
41.19
53.67
61.82
66.05
66.69
64.12
58.92
51.87
44.05
36.59
30.50
26.41
24.47
24.37
25.54
27.40
29.53
31.76
34.02
36.25
38.20
39.40
39.35
37.62
34.17
29.24
23.46
17.55
12.07
7.24
2.84
-1.59
-6.63
-12.54
-19.28
-26.47
-33.49
-39.82
-45.17
-49.55
-53.21
-56.63
-60.37
-65.07
-71.21
-78.83
-87.14
-94.42
-98.30
-96.36
-87.10
-70.48
-48.15
-22.86
2.34
24.91
43.28
56.87
65.75
70.28
70.96
68.32
63.14
56.35
49.00
42.03
36.16
31.74
28.81
27.28
27.02
27.94
29.91
32.62
35.58
38.12
39.74
40.08
39.16
37.20
34.45
31.10
27.22
22.82
18.01
12.92
7.75
2.65
-2.33
-7.18
-12.02
-16.95
-22.04
-27.36
-32.81
-38.29
-43.55
-48.36
-52.53
-56.18
-59.62
-63.49
-68.48
-75.04
-83.09
-91.62
-98.82
-102.33
-99.97
-90.52
-74.20
-52.70
-28.65
-4.91
16.28
33.54
46.45
55.19
60.11
61.73
60.55
57.21
52.47
47.09
41.74
36.82
32.55
29.03
26.34
24.62
24.08
24.82
26.79
29.67
32.91
35.80
37.63
37.89
36.34
33.14
28.73
23.78
18.98
14.73
11.10
7.68
3.85
-0.99
-7.11
-14.34
-22.15
-29.83
-36.80
-42.80
-47.97
-52.76
-57.78
-63.67
-70.86
-79.28
-88.17
-95.98
-100.63
-100.02
-92.75
-78.63
-58.85
-35.68
-11.81
10.38
29.20
43.87
54.28
60.72
63.64
63.55
61.06
56.80
51.43
45.52
39.56
33.89
28.81
24.61
21.47
19.59
18.98
19.46
20.68
22.16
23.45
24.23
24.35
23.77
22.52
20.53
17.69
13.82
8.85
2.91
-3.74
-10.67
-17.48
-23.91
-29.86
-35.43
-40.87
-46.64
-53.25
-61.15
-70.30
-79.95
-88.48
-93.64
-93.18
-85.61
-70.83
-50.23
-26.34
-2.06
20.06
38.30
51.94
61.07
66.22
68.07
67.29
64.42
59.96
54.33
47.99
41.45
35.21
29.78
25.50
22.53
20.84
20.25
20.52
21.36
22.46
23.47
23.98
23.66
22.34
20.06
16.95
13.20
8.83
3.76
-2.06
-8.48
-15.09
-21.35
-26.85
-31.56
-35.87
-40.48
-46.14
-53.31
-61.96
-71.39
-80.22
-86.60
-88.53
-84.42
-73.65
-56.84
-35.79
-12.96
9.13
28.57
44.28
55.91
63.57
67.51
68.06
65.62
60.77
54.24
46.88
39.45
32.61
26.70
21.88
18.10
15.29
13.35
12.20
11.82
12.12
12.91
13.89
14.66
14.83
14.08
12.26
9.35
5.46
0.78
-4.46
-9.97
-15.49
-20.80
-25.85
-30.80
-36.06
-42.15
-49.53
-58.18
-67.39
-75.65
-80.86
-80.96
-74.58
-61.63
-43.38
-22.16
-0.61
18.96
35.08
47.16
55.23
59.67
60.85
59.13
54.96
48.97
42.00
34.94
28.58
23.26
18.97
15.41
12.24
9.41
7.17
5.97
6.05
7.36
9.31
11.03
11.62
10.50
7.59
3.26
-1.81
-6.95
-11.69
-15.93
-19.92
-24.23
-29.50
-36.28
-44.75
-54.45
-64.23
-72.21
-76.36
-74.92
-67.08
-53.33
-35.26
-15.19
4.59
22.28
36.82
47.78
55.12
58.93
59.45
57.05
52.35
46.20
39.51
33.06
27.25
22.18
17.72
13.70
10.16
7.36
5.62
5.16
5.83
7.05
8.01
7.90
6.31
3.31
-0.67
-5.01
-9.25
-13.23
-17.19
-21.56
-26.88
-33.60
-41.92
-51.59
-61.65
-70.47
-75.90
-75.95
-69.39
-56.32
-38.17
-17.34
3.56
22.33
37.62
48.83
55.91
59.10
58.81
55.62
50.27
43.68
36.74
30.13
24.17
18.94
14.36
10.47
7.45
5.61
5.18
6.04
7.64
9.10
9.58
8.59
6.14
2.69
-1.15
-4.92
-8.57
-12.35
-16.75
-22.23
-29.11
-37.39
-46.67
-55.99
-63.82
-68.28
-67.63
-60.84
-48.08
-30.74
-11.11
8.27
25.32
38.77
48.22
53.85
56.14
55.58
52.65
47.79
41.51
34.36
26.93
19.78
13.40
8.20
4.41
2.05
0.93
0.69
0.83
0.87
0.45
-0.65
-2.41
-4.78
-7.64
-10.86
-14.37
-18.19
-22.51
-27.66
-34.06
-41.88
-50.68
-59.15
-65.28
-66.85
-62.24
-51.08
-34.45
-14.64
5.68
24.10
39.03
49.80
56.42
59.29
58.96
55.95
50.80
44.06
36.32
28.17
20.18
12.87
6.65
1.80
-1.61
-3.77
-5.04
-5.92
-6.90
-8.30
-10.18
-12.39
-14.63
-16.65
-18.43
-20.18
-22.38
-25.68
-30.74
-37.93
-47.09
-57.26
-66.58
-72.68
-73.26
-66.88
-53.52
-34.70
-13.00
8.72
28.04
43.49
54.51
61.23
64.01
63.24
59.32
52.76
44.30
34.92
25.71
17.60
11.23
6.75
3.90
2.23
1.22
0.42
-0.44
-1.48
-2.78
-4.32
-6.10
-8.18
-10.62
-13.59
-17.34
-22.21
-28.62
-36.87
-46.83
-57.60
-67.37
-73.72
-74.27
-67.48
-53.34
-33.49
-10.75
11.79
31.60
47.24
58.31
65.01
67.76
67.00
63.04
56.31
47.48
37.47
27.33
18.06
10.44
4.89
1.45
-0.23
-0.76
-0.77
-0.82
-1.28
-2.32
-3.98
-6.28
-9.21
-12.74
-16.84
-21.51
-27.00
-33.77
-42.30
-52.64
-63.92
-74.15
-80.62
-80.70
-72.85
-57.30
-35.96
-11.83
11.99
33.02
49.78
61.65
68.57
70.73
68.56
62.77
54.35
44.49
34.36
24.89
16.72
10.24
5.53
2.59
1.23
1.13
1.78
2.60
3.01
2.54
1.01
-1.57
-5.00
-9.00
-13.34
-18.00
-23.27
-29.75
-38.10
-48.54
-60.41
-71.90
-80.34
-82.92
-77.67
-64.25
-44.02
-19.64
5.84
29.77
50.36
66.64
78.20
84.76
86.33
83.17
76.02
66.16
55.10
44.28
34.76
27.05
21.21
17.12
14.58
13.48
13.70
15.02
16.87
18.41
18.78
17.28
13.75
8.58
2.57
-3.49
-9.05
-14.11
-19.19
-25.12
-32.78
-42.74
-54.94
-68.29
-80.62
-89.06
-90.63
-83.41
-67.16
-43.65
-16.10
11.82
36.99
57.52
72.73
82.71
87.85
88.57
85.36
78.95
70.43
61.05
52.03
44.28
38.26
34.04
31.51
30.48
30.77
32.20
34.51
37.31
40.10
42.31
43.53
43.52
42.27
39.98
36.97
33.46
29.57
25.29
20.50
15.19
9.49
3.69
-1.91
-7.09
-11.89
-16.60
-21.57
-27.06
-33.00
-39.07
-44.80
-49.81
-53.99
-57.57
-61.04
-65.00
-70.17
-77.15
-86.11
-96.33
-105.98
-112.22
-112.00
-103.11
-85.11
-59.74
-30.32
-0.69
25.98
47.83
64.30
75.60
82.12
84.21
82.16
76.57
68.46
59.25
50.36
42.92
37.56
34.29
32.83
32.73
33.71
35.67
38.52
42.08
45.91
49.34
51.56
52.01
50.44
47.16
42.82
38.18
33.83
29.91
26.18
22.17
17.45
11.94
5.87
-0.29
-6.04
-11.10
-15.47
-19.41
-23.24
-27.24
-31.50
-35.91
-40.21
-44.09
-47.31
-49.87
-52.04
-54.44
-57.86
-63.11
-70.53
-79.61
-88.75
-95.47
-97.01
-91.29
-77.62
-57.17
-32.51
-6.90
16.74
36.41
51.31
61.50
67.46
69.72
68.72
64.92
58.91
51.52
43.74
36.48
30.41
25.76
22.49
20.37
19.26
19.18
20.24
22.45
25.55
28.98
32.00
33.91
34.35
33.33
31.15
28.20
24.78
21.02
16.97
12.62
8.04
3.37
-1.25
-5.75
-10.20
-14.78
-19.66
-24.86
-30.24
-35.46
-40.12
-44.00
-47.10
-49.78
-52.61
-56.32
-61.48
-68.22
-75.90
-83.07
-87.70
-87.61
-81.30
-68.45
-50.11
-28.44
-6.09
14.56
31.90
45.18
54.33
59.64
61.48
60.25
56.43
50.71
43.95
37.10
30.91
25.85
22.00
19.19
17.22
16.03
15.76
16.56
18.45
21.08
23.74
25.60
25.94
24.55
21.64
17.85
13.83
10.04
6.50
2.93
-1.10
-5.89
-11.44
-17.47
-23.55
-29.27
-34.39
-38.90
-43.09
-47.44
-52.66
-59.37
-67.85
-77.52
-86.94
-93.83
-95.77
-91.01
-79.10
-61.09
-39.18
-16.03
6.02
25.27
40.82
52.29
59.67
63.14
63.11
60.21
55.30
49.27
42.81
36.39
30.23
24.44
19.20
14.81
11.68
10.17
10.36
11.93
14.21
16.34
17.62
17.67
16.58
14.67
12.37
9.90
7.23
4.14
0.34
-4.29
-9.65
-15.53
-21.66
-27.81
-33.85
-39.65
-45.16
-50.52
-56.18
-62.77
-70.82
-80.09
-89.30
-96.10
-97.70
-91.98
-78.38
-58.19
-34.19
-9.58
12.96
31.87
46.63
57.37
64.35
67.74
67.75
64.73
59.38
52.59
45.29
38.19
31.80
26.30
21.79
18.34
16.02
14.86
14.77
15.51
16.64
17.75
18.48
18.63
18.11
16.81
14.55
11.13
6.36
0.29
-6.77
-14.27
-21.60
-28.31
-34.26
-39.69
-45.10
-51.24
-58.78
-68.10
-79.00
-90.29
-99.92
-105.26
-103.89
-94.43
-77.13
-53.87
-27.62
-1.60
21.60
40.50
54.63
64.26
69.97
72.26
71.60
68.36
62.98
56.05
48.27
40.43
33.21
27.16
22.52
19.32
17.44
16.69
16.90
17.87
19.34
20.96
22.26
22.72
21.90
19.56
15.64
10.34
4.06
-2.81
-9.85
-16.79
-23.48
-29.89
-36.20
-42.71
-49.92
-58.39
-68.44
-79.79
-91.13
-100.18
-104.15
-100.70
-88.80
-69.26
-44.54
-17.97
7.33
29.20
46.65
59.61
68.40
73.31
74.49
72.22
67.02
59.81
51.72
43.79
36.81
31.20
27.08
24.36
22.89
22.52
23.03
24.15
25.59
27.03
28.11
28.48
27.78
25.67
21.93
16.54
9.71
1.91
-6.27
-14.21
-21.49
-27.90
-33.54
-38.81
-44.35
-50.90
-59.13
-69.23
-80.57
-91.44
-99.30
-101.38
-95.65
-81.59
-60.49
-35.10
-8.73
15.74
36.43
52.61
64.29
71.72
75.10
74.55
70.37
63.22
54.26
44.88
36.42
29.75
25.14
22.29
20.68
19.84
19.59
20.01
21.19
23.01
25.05
26.51
26.59
24.67
20.63
14.87
8.11
1.16
-5.35
-11.27
-16.76
-22.32
-28.48
-35.69
-44.33
-54.50
-65.84
-77.31
-86.99
-92.47
-91.41
-82.47
-65.89
-43.55
-18.41
6.47
28.73
47.08
61.10
70.82
76.23
77.37
74.40
68.06
59.57
50.44
41.99
34.93
29.35
24.86
21.02
17.67
15.01
13.49
13.43
14.79
17.01
19.18
20.32
19.69
17.02
12.55
6.87
0.74
-5.18
-10.52
-15.23
-19.61
-24.20
-29.67
-36.62
-45.37
-55.62
-66.20
-75.11
-79.89
-78.37
-69.42
-53.48
-32.47
-9.22
13.45
33.41
49.50
61.34
68.93
72.35
71.74
67.48
60.37
51.59
42.44
34.02
26.97
21.41
17.09
13.71
11.14
9.46
8.93
9.68
11.56
13.95
15.97
16.63
15.26
11.73
6.50
0.44
-5.55
-10.89
-15.55
-19.98
-24.92
-31.13
-39.09
-48.83
-59.61
-69.94
-77.62
-80.31
-76.21
-64.73
-46.85
-24.91
-1.83
19.67
37.75
51.58
60.99
66.19
67.36
64.76
58.94
50.75
41.39
32.08
23.75
16.89
11.55
7.49
4.57
2.77
2.17
2.80
4.44
6.55
8.34
9.09
8.23
5.72
1.90
-2.65
-7.32
-11.76
-16.01
-20.59
-26.25
-33.66
-42.86
-52.97
-62.12
-67.80
-67.69
-60.46
-46.36
-27.13
-5.55
15.49
33.73
47.89
57.67
63.28
65.18
63.78
59.42
52.58
43.85
34.01
23.93
14.48
6.35
-0.02
-4.47
-7.19
-8.59
-9.23
-9.61
-10.11
-10.87
-11.91
-13.18
-14.73
-16.75
-19.53
-23.36
-28.49
-35.10
-43.29
-52.80
-62.88
-71.99
-78.04
-78.84
-72.92
-60.15
-41.92
-20.75
0.51
19.51
34.83
46.05
53.33
56.96
57.15
54.10
48.13
39.93
30.55
21.19
12.95
6.58
2.27
-0.27
-1.61
-2.40
-3.11
-3.98
-5.08
-6.33
-7.75
-9.46
-11.68
-14.63
-18.55
-23.59
-29.96
-37.87
-47.38
-58.02
-68.51
-76.73
-80.22
-76.90
-65.92
-48.12
-25.84
-2.20
19.87
38.28
52.14
61.40
66.44
67.64
65.29
59.73
51.53
41.65
31.31
21.78
14.04
8.57
5.20
3.38
2.36
1.49
0.44
-0.82
-2.22
-3.70
-5.42
-7.65
-10.76
-15.03
-20.65
-27.72
-36.40
-46.68
-58.09
-69.37
-78.35
-82.43
-79.34
-68.12
-49.58
-26.21
-1.35
21.77
40.93
55.18
64.58
69.71
71.15
69.33
64.61
57.48
48.77
39.54
30.91
23.81
18.73
15.69
14.32
14.02
14.20
14.32
13.97
12.87
10.84
7.84
3.92
-0.77
-6.09
-11.96
-18.47
-25.90
-34.67
-45.01
-56.64
-68.41
-78.27
-83.57
-81.89
-71.87
-53.87
-29.96
-3.34
22.55
45.04
62.56
74.68
81.71
84.22
82.85
78.26
71.27
62.95
54.51
47.08
41.51
38.08
36.67
36.84
38.08
40.02
42.36
44.90
47.37
49.49
50.90
51.36
50.71
48.92
46.16
42.62
38.59
34.29
29.94
25.67
21.55
17.60
13.82
10.16
6.53
2.71
-1.47
-6.06
-10.85
-15.40
-19.17
-21.90
-23.67
-25.02
-26.70
-29.42
-33.50
-38.82
-44.86
-50.90
-56.36
-60.91
-64.62
-67.97
-71.77
-76.97
-84.40
-94.20
-105.44
-115.96
-122.67
-122.39
-112.97
-94.17
-67.87
-37.56
-7.13
20.20
42.48
59.10
70.20
76.25
77.76
75.31
69.75
62.27
54.23
46.84
40.94
36.79
34.34
33.25
33.25
34.13
35.78
38.08
40.78
43.49
45.72
47.03
47.07
45.74
43.12
39.38
34.74
29.40
23.62
17.68
11.96
6.78
2.34
-1.47
-4.99
-8.71
-13.00
-17.95
-23.28
-28.51
-33.16
-36.94
-39.98
-42.76
-45.93
-50.17
-55.95
-63.34
-71.71
-79.73
-85.39
-86.49
-81.25
-69.01
-50.57
-28.02
-4.15
18.35
37.54
52.49
63.02
69.40
71.95
71.01
66.99
60.59
52.80
44.73
37.42
31.57
27.46
25.08
24.23
24.73
26.46
29.24
32.77
36.56
39.95
42.33
43.29
42.76
41.02
38.46
35.45
32.24
28.77
24.89
20.45
15.44
10.10
4.78
-0.15
-4.53
-8.44
-12.18
-16.08
-20.33
-24.92
-29.68
-34.49
-39.30
-44.30
-49.81
-56.15
-63.64
-72.37
-82.07
-91.87
-100.27
-105.19
-104.56
-96.92
-82.18
-61.66
-37.95
-14.03
7.56
25.23
38.53
47.73
53.38
55.94
55.72
53.00
48.19
41.94
35.12
28.63
23.22
19.38
17.27
16.81
17.76
19.80
22.55
25.59
28.55
31.10
33.06
34.31
34.75
34.24
32.63
29.76
25.61
20.45
14.70
8.92
3.49
-1.51
-6.34
-11.42
-17.03
-23.14
-29.41
-35.32
-40.45
-44.68
-48.19
-51.42
-54.82
-58.88
-63.98
-70.34
-77.86
-85.89
-93.03
-97.36
-96.88
-90.22
-77.23
-59.02
-37.65
-15.46
5.68
24.58
40.69
53.79
63.62
69.83
72.12
70.64
66.02
59.39
52.03
44.96
38.83
33.74
29.58
26.26
23.85
22.60
22.77
24.34
26.88
29.62
31.63
32.15
30.85
27.86
23.69
19.03
14.45
10.34
6.69
3.26
-0.36
-4.58
-9.67
-15.66
-22.21
-28.83
-34.90
-39.99
-43.98
-47.06
-49.75
-52.77
-56.81
-62.34
-69.40
-77.25
-84.37
-88.69
-88.07
-81.05
-67.37
-48.24
-25.93
-3.21
17.46
34.44
47.02
55.28
59.71
60.90
59.49
55.99
50.92
44.77
38.02
31.11
24.54
18.78
14.26
11.29
9.97
10.15
11.50
13.55
15.87
18.09
19.87
20.88
20.83
19.52
16.87
12.95
7.96
2.12
-4.27
-10.97
-17.63
-23.95
-29.74
-34.99
-40.01
-45.38
-51.82
-59.88
-69.58
-80.11
-89.74
-96.10
-96.76
-90.09
-75.89
-55.53
-31.67
-7.34
14.91
33.54
