1523178832.00
64.000000
-0.00
-0.00
-0.00
-0.00
-0.00
-0.00
-0.00
-0.00
-0.00
-0.00
0.00
0.01
0.01
-0.00
-0.03
-0.05
-0.05
0.00
0.13
0.36
0.66
1.01
1.37
1.72
2.06
2.40
2.79
3.24
3.80
4.42
5.06
5.66
6.20
6.68
7.15
7.68
8.31
9.14
10.09
11.04
11.88
12.56
13.14
13.76
14.65
15.96
17.91
20.32
22.90
25.38
27.58
29.57
31.68
34.32
37.81
42.54
48.15
54.10
59.83
64.97
69.58
74.14
79.34
85.71
93.76
103.00
112.62
121.73
129.77
136.75
143.30
150.75
157.77
166.64
177.95
191.79
206.97
220.57
228.25
225.36
208.53
176.87
132.76
80.05
23.07
-34.94
-92.44
-149.16
-205.23
-260.37
-313.74
-363.87
-409.83
-450.89
-486.48
-515.70
-537.16
-549.13
-549.83
-538.20
-513.99
-478.41
-433.56
-382.07
-326.58
-269.34
-212.06
-156.02
-102.24
-51.59
-5.04
36.53
72.46
102.48
126.74
145.73
160.16
170.75
178.13
182.68
184.69
184.39
182.07
178.06
172.77
166.62
159.94
153.00
145.93
138.80
131.65
124.54
117.52
110.66
104.04
97.70
91.69
86.01
80.68
75.71
71.10
66.87
63.03
59.56
56.48
53.79
51.49
49.57
48.02
46.83
45.95
45.32
44.85
44.41
43.83
42.94
41.56
39.54
36.76
33.17
28.77
23.61
17.83
11.64
5.28
-0.99
-6.90
-12.23
-16.80
-20.47
-23.17
-24.91
-25.75
-25.77
-25.10
-23.87
-22.22
-20.27
-18.10
-15.79
-13.38
-10.91
-8.42
-5.92
-3.40
-0.87
1.71
4.35
7.09
9.95
12.90
15.93
19.03
22.19
25.43
28.76
32.19
35.78
39.58
43.52
47.56
51.69
55.92
60.28
64.79
69.49
74.46
79.77
85.28
90.89
96.56
102.23
107.89
113.56
119.24
124.97
130.80
136.48
141.77
146.48
150.37
153.13
154.40
153.64
150.15
145.22
139.33
132.75
125.72
118.39
110.92
103.44
96.11
89.12
82.64
76.57
70.84
65.43
60.32
55.49
50.94
46.69
42.75
39.19
35.81
32.49
29.17
25.81
22.45
19.14
15.99
13.10
10.57
8.32
6.29
4.41
2.64
0.95
-0.63
-2.08
-3.35
-4.43
-5.41
-6.43
-7.57
-8.92
-10.46
-12.11
-13.75
-15.27
-16.66
-18.02
-19.58
-21.56
-24.08
-27.11
-30.43
-33.73
-36.75
-39.42
-41.93
-44.73
-48.26
-52.85
-58.45
-64.73
-71.13
-77.19
-82.82
-88.35
-94.49
-102.01
-111.40
-122.60
-135.07
-147.99
-160.65
-172.76
-184.51
-196.56
-209.80
-225.27
-243.88
-266.16
-291.60
-318.22
-342.51
-360.16
-367.37
-362.21
-345.43
-320.20
-290.85
-261.33
-234.09
-209.87
-188.33
-168.94
-151.51
-136.21
-123.08
-111.72
-101.22
-90.52
-78.99
-66.68
-54.33
-43.01
-33.52
-26.06
-20.18
-15.02
-9.79
-4.11
1.84
7.41
11.86
14.72
15.98
16.09
15.67
15.31
15.23
15.28
15.06
14.17
12.42
9.97
7.37
5.46
5.11
6.99
11.28
17.59
25.04
32.56
39.16
44.30
47.88
50.10
51.28
51.73
51.64
51.15
50.43
49.68
49.04
48.61
48.29
47.91
47.22
46.12
44.66
43.09
41.68
40.61
39.82
39.04
37.93
36.29
34.09
31.47
28.63
25.70
22.75
19.82
17.00
14.40
12.11
10.16
8.41
6.71
5.00
3.34
1.95
1.06
0.74
0.86
1.03
0.87
0.12
-1.23
-2.95
-4.70
-6.19
-7.27
-7.93
-8.16
-7.91
-6.97
-5.16
-2.45
1.04
4.91
8.74
12.11
14.75
16.53
17.50
17.82
17.76
17.64
17.70
18.05
18.56
18.97
19.06
18.74
18.15
17.51
17.01
16.65
16.28
15.70
14.81
13.63
12.34
11.13
10.10
9.25
8.52
7.87
7.27
6.69
6.11
5.46
4.73
3.99
3.36
2.94
2.73
2.59
2.28
1.72
0.96
0.32
0.17
0.78
2.09
3.78
5.34
6.29
6.49
6.10
5.52
5.13
5.10
5.32
5.54
5.53
5.24
4.83
4.55
4.65
5.21
6.13
7.19
8.12
8.70
8.83
8.53
7.93
7.19
6.48
5.82
5.18
4.47
3.66
2.86
2.20
1.77
1.54
1.31
0.84
0.02
-1.08
-2.21
-3.08
-3.52
-3.50
-3.21
-2.90
-2.80
-3.05
-3.60
-4.27
-4.79
-4.85
-4.23
-2.90
-0.99
1.18
3.23
4.88
6.03
6.80
7.47
8.39
9.84
12.06
15.16
19.12
23.82
29.08
34.68
40.46
46.40
52.61
59.17
65.96
72.45
77.70
80.51
79.82
74.94
65.93
53.59
39.45
25.59
14.20
7.02
4.79
6.87
11.41
15.94
18.29
17.32
13.13
6.79
-0.45
-7.66
-14.47
-20.85
-26.70
-31.69
-35.31
-37.17
-37.24
-35.89
-33.76
-31.43
-29.28
-27.49
-26.00
-24.76
-23.70
-22.79
-22.04
-21.42
-20.88
-20.31
-19.60
-18.67
-17.52
-16.20
-14.79
-13.37
-11.99
-10.62
-9.23
-7.80
-6.33
-4.83
-3.36
-2.01
-0.91
-0.22
-0.06
-0.46
-1.26
-2.21
-2.99
-3.36
-3.21
-2.65
-1.86
-1.13
-0.57
-0.24
-0.08
-0.03
-0.06
-0.28
-0.80
-1.70
-2.99
-4.46
-5.83
-6.77
-7.05
-6.65
-5.73
-4.62
-3.64
-3.06
-2.92
-3.15
-3.54
-3.91
-4.11
-4.06
-3.73
-3.11
-2.26
-1.27
-0.33
0.40
0.82
0.99
1.08
1.32
1.85
2.64
3.47
4.03
4.14
3.73
2.98
2.13
1.36
0.75
0.28
-0.13
-0.49
-0.75
-0.85
-0.82
-0.76
-0.90
-1.37
-2.15
-3.08
-3.95
-4.60
-5.06
-5.43
-5.78
-6.13
-6.36
-6.32
-5.99
-5.49
-4.98
-4.61
-4.33
-3.97
-3.31
-2.15
-0.57
1.22
2.82
3.89
4.24
3.97
3.45
3.08
3.18
3.73
4.43
4.85
4.71
4.04
3.18
2.59
2.58
3.15
4.07
5.02
5.75
6.21
6.41
6.45
6.34
6.05
5.59
5.00
4.34
3.63
2.81
1.82
0.63
-0.67
-1.93
-2.91
-3.49
-3.66
-3.57
-3.45
-3.54
-3.96
-4.64
-5.38
-5.88
-5.87
-5.19
-3.92
-2.24
-0.45
1.19
2.51
3.47
4.08
4.42
4.60
4.76
5.05
5.56
6.29
7.12
7.85
8.25
8.22
7.73
6.90
5.87
4.75
3.58
2.42
1.35
0.45
-0.15
-0.47
-0.60
-0.81
-1.32
-2.33
-3.78
-5.46
-7.05
-8.22
-8.78
-8.73
-8.25
-7.57
-6.94
-6.52
-6.36
-6.41
-6.51
-6.44
-5.97
-4.94
-3.32
-1.29
0.83
2.70
4.10
4.98
5.52
5.90
6.32
6.84
7.40
7.91
8.30
8.57
8.77
8.91
8.98
8.92
8.66
8.13
7.35
6.40
5.38
4.41
3.54
2.70
1.78
0.70
-0.57
-1.90
-3.08
-3.94
-4.43
-4.74
-5.12
-5.81
-6.84
-8.05
-9.18
-9.99
-10.47
-10.67
-10.66
-10.32
-9.42
-7.70
-5.10
-1.92
1.27
3.88
5.51
6.20
6.29
6.23
6.31
6.51
6.57
6.24
5.47
4.46
3.54
3.01
2.92
3.13
3.44
3.70
3.90
4.07
4.13
3.90
3.13
1.73
-0.15
-2.15
-3.90
-5.20
-6.13
-6.88
-7.71
-8.70
-9.84
-11.03
-12.19
-13.27
-14.10
-14.41
-13.81
-12.06
-9.20
-5.62
-1.99
1.09
3.28
4.62
5.35
5.76
5.97
5.93
5.51
4.69
3.63
2.62
1.93
1.63
1.64
1.72
1.64
1.27
0.57
-0.36
-1.47
-2.70
-4.05
-5.49
-6.97
-8.37
-9.59
-10.61
-11.53
-12.56
-13.95
-15.87
-18.36
-21.25
-24.17
-26.58
-27.82
-27.30
-24.56
-19.57
-12.70
-4.80
3.06
9.86
14.96
18.15
19.68
19.97
19.45
18.44
17.15
15.76
14.47
13.50
13.04
13.11
13.55
14.12
14.51
14.47
13.88
12.80
11.39
9.92
8.56
7.32
6.03
4.38
2.10
-0.83
-4.15
-7.42
-10.20
-12.24
-13.65
-14.79
-16.15
-18.13
-20.92
-24.60
-29.06
-34.11
-39.32
-43.95
-46.92
-47.11
-43.75
-36.75
-26.93
-15.74
-4.77
4.74
12.22
17.81
22.00
25.25
27.79
29.59
30.54
30.69
30.31
29.83
29.69
30.11
31.01
32.11
32.98
33.28
32.88
31.84
30.42
28.86
27.29
25.66
23.81
21.54
18.84
15.85
12.87
10.23
8.08
6.33
4.71
2.87
0.53
-2.41
-5.89
-9.69
-13.51
-17.03
-20.04
-22.49
-24.53
-26.44
-28.56
-31.17
-34.45
-38.40
-42.71
-46.71
-49.29
-49.22
-45.45
-37.66
-26.49
-13.42
-0.26
11.48
21.09
28.65
34.70
39.74
43.88
46.89
48.43
48.50
47.47
46.02
44.83
44.22
44.06
43.93
43.40
42.30
40.76
39.12
37.61
36.20
34.58
32.33
29.25
25.46
21.41
17.71
14.77
12.72
11.29
10.02
8.50
6.48
4.04
1.42
-1.04
-3.14
-4.82
-6.15
-7.34
-8.53
-9.87
-11.43
-13.19
-14.98
-16.54
-17.55
-17.72
-16.89
-15.13
-12.69
-10.01
-7.58
-5.88
-5.21
-5.64
-6.93
-8.66
-10.21
-11.09
-10.96
-9.80
-7.87
-5.62
-3.51
-1.86
-0.80
-0.22
0.09
0.28
0.40
0.32
-0.12
-1.00
-2.16
-3.26
-3.83
-3.53
-2.32
-0.40
1.76
3.70
5.10
5.84
5.96
5.64
5.06
4.37
3.69
3.06
2.61
2.44
2.65
3.24
4.11
4.99
5.59
5.61
4.96
3.75
2.32
1.09
0.37
0.22
0.52
0.98
1.31
1.32
0.93
0.23
-0.57
-1.19
-1.28
-0.59
0.89
2.83
4.65
5.66
5.45
4.04
1.88
-0.36
-2.08
-3.01
-3.25
-3.14
-3.02
-3.05
-3.13
-3.07
-2.63
-1.73
-0.48
0.90
2.18
3.24
4.07
4.77
5.45
6.08
6.54
6.65
6.33
5.66
4.93
4.46
4.41
4.64
4.77
4.35
3.16
1.37
-0.56
-2.09
-2.89
-3.01
-2.72
-2.42
-2.36
-2.61
-3.08
-3.65
-4.18
-4.55
-4.71
-4.64
-4.42
-4.20
-4.15
-4.31
-4.54
-4.56
-4.06
-2.94
-1.34
0.37
1.83
2.79
3.27
3.41
3.46
3.56
3.73
3.90
3.95
3.75
3.26
2.47
1.44
0.18
-1.25
-2.81
-4.41
-5.95
-7.29
-8.22
-8.55
-8.16
-7.12
-5.71
-4.31
-3.36
-3.06
-3.41
-4.10
-4.83
-5.36
-5.68
-5.88
-6.08
-6.26
-6.28
-5.96
-5.15
-3.92
-2.48
-1.17
-0.24
0.20
0.22
0.03
-0.24
-0.54
-0.92
-1.50
-2.26
-3.02
-3.46
-3.30
-2.43
-1.03
0.50
1.72
2.32
2.28
1.78
1.12
0.60
0.40
0.56
0.94
1.32
1.46
1.22
0.57
-0.33
-1.29
-2.12
-2.77
-3.19
-3.37
-3.26
-2.75
-1.88
-0.74
0.37
1.12
1.19
0.47
-0.98
-2.95
-5.07
-7.02
-8.48
-9.31
-9.49
-9.18
-8.66
-8.25
-8.29
-9.00
-10.42
-12.39
-14.55
-16.50
-17.91
-18.70
-19.01
-19.16
-19.48
-20.22
-21.47
-23.15
-25.04
-26.79
-27.93
-27.88
-26.05
-22.01
-15.79
-7.90
0.61
8.47
14.59
18.39
19.88
19.64
18.46
17.01
15.73
14.74
14.02
13.55
13.31
13.25
13.18
12.83
11.95
10.49
8.71
7.01
5.72
4.90
4.19
3.10
1.21
-1.52
-4.77
-8.00
-10.79
-13.04
-15.01
-17.11
-19.72
-22.96
-26.68
-30.53
-34.02
-36.57
-37.54
-36.35
-32.56
-26.08
-17.33
-7.21
3.15
12.62
20.44
26.29
30.21
32.40
33.05
32.29
30.33
27.52
24.43
21.61
19.44
18.02
17.10
16.36
15.52
14.51
13.36
12.05
10.50
8.51
6.00
3.05
-0.09
-3.11
-5.82
-8.25
-10.62
-13.24
-16.37
-20.17
-24.68
-29.84
-35.31
-40.35
-43.81
-44.32
-40.74
-32.62
-20.57
-6.14
8.60
21.70
31.89
38.79
42.78
44.61
44.95
44.24
42.61
40.10
36.83
33.10
29.36
26.05
23.36
21.21
19.32
17.35
15.13
12.70
10.26
7.99
5.93
3.94
1.71
-0.99
-4.28
-8.02
-12.03
-16.17
-20.49
-25.18
-30.23
-35.27
-39.35
-41.16
-39.47
-33.71
-24.32
-12.61
-0.41
10.59
19.30
25.33
28.88
30.38
30.29
28.95
26.68
23.79
20.65
17.60
15.01
13.07
11.83
11.20
10.87
10.49
9.64
8.05
5.68
2.72
-0.45
-3.40
-5.88
-7.87
-9.69
-11.76
-14.54
-18.20
-22.71
-27.71
-32.59
-36.54
-38.60
-37.80
-33.40
-25.24
-13.90
-0.76
12.38
23.72
32.04
36.92
38.66
38.05
35.93
32.97
29.58
25.96
22.28
18.73
15.59
13.14
11.58
10.88
10.75
10.69
10.15
8.77
6.47
3.47
0.21
-2.93
-5.73
-8.21
-10.57
-13.01
-15.72
-18.85
-22.48
-26.64
-31.23
-35.74
-39.28
-40.56
-38.41
-32.24
-22.39
-10.23
2.32
13.40
21.75
27.00
29.46
29.78
28.57
26.28
23.26
19.88
16.59
13.81
11.80
10.53
9.74
9.14
8.53
7.86
7.20
6.58
5.86
4.79
3.07
0.53
-2.75
-6.48
-10.24
-13.73
-16.80
-19.66
-22.71
-26.41
-31.04
-36.46
-41.98
-46.34
-48.09
-45.97
-39.37
-28.66
-15.11
-0.61
12.95
24.12
32.20
37.13
39.29
39.17
37.24
33.95
29.83
25.55
21.83
19.21
17.90
17.67
17.90
17.94
17.32
15.89
13.87
11.68
9.59
7.72
5.85
3.62
0.67
-3.10
-7.58
-12.38
-17.02
-21.15
-24.63
-27.65
-30.65
-34.21
-38.81
-44.64
-51.38
-58.04
-63.12
-64.88
-61.91
-53.57
-40.41
-23.97
-6.46
9.99
23.80
34.22
41.21
45.13
46.45
45.61
43.08
39.44
35.44
31.82
29.18
27.81
27.56
28.00
28.55
28.66
28.01
26.57
24.54
22.23
19.92
17.65
15.20
12.20
8.28
3.37
-2.25
-8.01
-13.31
-17.72
-21.22
-24.13
-26.99
-30.33
-34.53
-39.77
-45.93
-52.51
-58.52
-62.60
-63.23
-59.23
-50.22
-36.86
-20.76
-3.97
11.64
24.80
34.97
42.11
46.42
48.14
47.57
45.20
41.78
38.24
35.40
33.77
33.37
33.84
34.64
35.29
35.51
35.25
34.53
33.45
32.03
30.20
27.89
25.03
21.71
18.07
14.37
10.77
7.31
3.90
0.37
-3.40
-7.42
-11.50
-15.43
-18.99
-22.13
-25.00
-27.90
-31.23
-35.38
-40.61
-47.00
-54.19
-61.30
-66.95
-69.44
-67.29
-59.67
-46.88
-30.33
-12.17
5.31
20.34
31.94
39.96
44.78
46.98
47.17
45.95
43.94
41.79
40.03
39.00
38.70
38.83
38.96
38.68
37.79
36.28
34.35
32.24
30.11
28.06
26.04
23.95
21.68
19.12
16.21
12.99
9.63
6.42
3.61
1.34
-0.50
-2.21
-4.17
-6.65
-9.67
-13.01
-16.33
-19.33
-21.92
-24.21
-26.44
-28.91
-31.91
-35.62
-40.13
-45.28
-50.54
-54.87
-56.92
-55.29
-49.15
-38.58
-24.73
-9.48
5.07
17.26
26.25
32.01
35.06
36.08
35.61
34.04
31.68
28.94
26.32
24.37
23.42
23.48
24.26
25.25
25.96
26.04
25.42
24.23
22.71
21.07
19.41
17.69
15.72
13.32
10.42
7.13
3.79
0.76
-1.72
-3.72
-5.60
-7.79
-10.58
-13.91
-17.40
-20.54
-23.04
-24.85
-26.24
-27.62
-29.37
-31.76
-34.93
-38.81
-43.07
-47.04
-49.67
-49.73
-46.27
-38.89
-28.13
-15.33
-2.24
9.50
18.81
25.28
29.06
30.65
30.55
29.24
27.10
24.56
22.07
20.06
18.89
18.62
19.06
19.76
20.29
20.29
19.67
18.60
17.31
15.99
14.63
13.08
11.10
8.59
5.57
2.29
-0.94
-3.83
-6.21
-8.09
-9.69
-11.33
-13.37
-16.01
-19.24
-22.81
-26.41
-29.71
-32.59
-35.13
-37.56
-40.22
-43.51
-47.70
-52.77
-58.27
-63.15
-65.92
-64.99
-59.32
-48.79
-34.44
-18.08
-1.84
12.58
24.17
32.70
38.42
41.74
43.04
42.65
40.96
38.55
36.14
34.38
33.66
33.94
34.82
35.72
36.14
35.86
34.97
33.74
32.48
31.32
30.18
28.82
26.95
24.33
20.94
16.94
12.70
8.67
5.20
2.44
0.20
-1.91
-4.30
-7.22
-10.56
-14.01
-17.10
-19.53
-21.35
-22.93
-24.83
-27.60
-31.50
-36.50
-42.21
-47.91
-52.59
-55.03
-54.04
-48.76
-39.03
-25.62
-10.09
5.59
19.66
30.93
39.00
44.11
46.77
47.51
46.72
44.68
41.75
38.31
34.76
31.41
28.32
25.39
22.38
19.12
15.60
11.99
8.56
5.56
3.10
1.18
-0.30
-1.41
-2.15
-2.46
-2.34
-1.85
-1.18
-0.54
-0.14
-0.09
-0.38
-0.98
-1.81
-2.81
-3.79
-4.55
-4.85
-4.61
-3.99
-3.28
-2.75
-2.41
-1.98
-1.06
0.53
2.53
4.25
4.81
3.65
0.81
-3.00
-6.68
-9.19
-9.87
-8.64
-5.87
-2.11
2.06
6.23
10.21
13.95
17.56
21.17
24.95
28.96
33.21
37.45
41.30
44.22
45.75
45.65
44.04
41.39
38.31
35.47
33.25
31.75
30.79
29.94
28.79
27.00
24.44
21.16
17.40
13.42
9.52
5.94
2.85
0.37
-1.45
-2.66
-3.44
-4.12
-5.05
-6.43
-8.15
-9.80
-10.67
-10.06
-7.57
-3.29
2.05
7.32
11.33
13.27
12.94
10.86
7.79
4.34
0.55
-4.04
-10.00
-17.40
-25.49
-32.90
-38.20
-40.70
-40.77
-39.69
-38.99
-39.66
-41.79
-44.61
-47.12
-48.59
-48.96
-48.75
-48.64
-49.08
-49.93
-50.49
-49.86
-47.43
-43.30
-38.32
-33.68
-30.29
-28.24
-26.83
-25.04
-22.18
-18.39
-14.56
-11.77
-10.60
-10.72
-11.18
-10.91
-9.34
-6.63
-3.52
-0.86
0.74
1.05
0.18
-1.57
-3.91
-6.50
-9.12
-11.55
-13.65
-15.25
-16.23
-16.47
-15.91
-14.67
-13.07
-11.45
-10.08
-9.05
-8.18
-7.21
-6.01
-4.67
-3.47
-2.73
-2.55
-2.72
-2.82
-2.40
-1.22
0.67
2.85
4.83
6.18
6.74
6.72
6.61
6.94
8.07
9.97
12.33
14.67
16.57
17.84
18.52
18.77
18.72
18.47
18.09
17.72
17.57
17.78
18.31
18.83
18.87
17.97
15.95
13.05
9.79
6.80
4.54
3.26
2.88
3.17
3.81
4.51
5.02
5.22
5.10
4.74
4.30
3.98
3.90
4.10
4.45
4.74
4.71
4.19
3.11
1.55
-0.33
-2.31
-4.18
-5.80
-6.99
-7.69
-7.90
-7.71
-7.33
-6.98
-6.83
-6.92
-7.17
-7.42
-7.53
-7.40
-7.00
-6.34
-5.42
-4.30
-3.06
-1.89
-1.00
-0.52
-0.51
-0.86
-1.39
-1.94
-2.41
-2.84
-3.31
-3.89
-4.51
-5.07
-5.41
-5.54
-5.58
-5.70
-6.04
-6.61
-7.33
-8.08
-8.80
-9.49
-10.15
-10.74
-11.17
-11.31
-11.09
-10.57
-9.90
-9.21
-8.53
-7.77
-6.82
-5.63
-4.31
-3.08
-2.20
-1.78
-1.81
-2.05
-2.23
-2.07
-1.42
-0.32
1.06
2.42
3.55
4.33
4.78
4.98
5.02
4.91
4.59
4.03
3.24
2.34
1.48
0.76
0.30
0.14
0.32
0.82
1.59
2.46
3.22
3.71
3.91
3.98
4.19
4.76
5.78
7.19
8.81
10.44
11.93
13.20
14.20
14.90
15.31
15.44
15.33
15.00
14.45
13.66
12.60
11.28
9.79
8.33
7.06
6.13
5.54
5.15
4.75
4.11
3.12
1.78
0.21
-1.38
-2.78
-3.86
-4.52
-4.72
-4.47
-3.82
-2.89
-1.82
-0.75
0.27
1.20
2.05
2.75
3.22
3.35
3.04
2.33
1.34
0.28
-0.67
-1.37
-1.77
-1.86
-1.72
-1.41
-1.04
-0.73
-0.52
-0.41
-0.34
-0.20
0.01
0.21
0.25
0.02
-0.42
-0.91
-1.25
-1.34
-1.22
-1.11
-1.13
-1.32
-1.51
-1.48
-1.02
-0.11
1.13
2.43
3.51
4.18
4.29
3.83
2.94
1.84
0.80
0.08
-0.16
-0.01
0.35
0.70
0.91
1.03
1.24
1.69
2.40
3.16
3.62
3.46
2.57
1.08
-0.65
-2.25
-3.44
-4.14
-4.40
-4.37
-4.21
-4.03
-3.93
-3.93
-3.95
-3.87
-3.57
-3.01
-2.24
-1.44
-0.86
-0.65
-0.86
-1.35
-1.89
-2.21
-2.15
-1.76
-1.16
-0.64
-0.42
-0.60
-1.11
-1.81
-2.45
-2.88
-2.95
-2.59
-1.79
-0.67
0.58
1.63
2.24
2.24
1.68
0.75
-0.31
-1.31
-2.16
-2.90
-3.58
-4.26
-4.94
-5.53
-5.92
-6.01
-5.71
-5.07
-4.18
-3.25
-2.46
-1.95
-1.73
-1.72
-1.79
-1.76
-1.58
-1.21
-0.72
-0.20
0.26
0.55
0.62
0.48
0.16
-0.23
-0.61
-0.89
-1.01
-0.91
-0.55
0.05
0.78
1.48
1.94
2.03
1.73
1.19
0.63
0.23
0.05
-0.00
-0.10
-0.37
-0.80
-1.22
-1.47
-1.38
-0.98
-0.33
0.44
1.28
2.16
3.01
3.66
3.85
3.36
2.13
0.33
-1.63
-3.31
-4.43
-4.91
-4.91
-4.67
-4.38
-4.08
-3.71
-3.23
-2.64
-2.08
-1.73
-1.69
-1.93
-2.28
-2.55
-2.63
-2.54
-2.42
-2.48
-2.82
-3.41
-4.17
-4.97
-5.74
-6.48
-7.21
-7.94
-8.69
-9.50
-10.42
-11.54
-12.90
-14.51
-16.31
-18.20
-20.11
-22.06
-24.14
-26.41
-28.92
-31.61
-34.38
-37.20
-40.13
-43.35
-47.01
-51.17
-55.77
-60.70
-65.78
-70.91
-76.04
-81.18
-86.36
-91.64
-97.20
-103.21
-109.88
-117.18
-124.75
-131.87
-137.54
-140.73
-140.50
-136.17
-127.32
-113.74
-95.43
-72.63
-45.94
-16.37
14.61
45.28
73.94
99.14
119.91
135.81
146.82
153.18
155.29
153.72
149.25
142.81
135.35
127.72
120.42
113.59
107.06
100.54
93.88
87.06
80.30
73.90
68.14
63.13
58.79
54.91
51.23
47.59
43.95
40.36
36.89
33.60
30.48
27.54
24.78
22.26
19.97
17.85
15.79
13.64
11.40
9.21
7.35
6.08
5.46
5.28
5.16
4.72
3.77
2.41
0.95
-0.34
-1.26
-1.84
-2.19
-2.45
-2.74
-3.05
-3.33
-3.51
-3.49
-3.25
-2.82
-2.32
-1.85
-1.51
-1.30
-1.16
-1.03
-0.90
-0.79
-0.75
-0.77
-0.80
-0.74
-0.56
-0.29
0.01
0.28
0.51
0.71
0.86
0.93
0.88
0.70
0.45
0.23
0.12
0.14
0.27
0.42
0.50
0.48
0.35
0.16
-0.09
-0.39
-0.75
-1.19
-1.63
-1.95
-1.97
-1.58
-0.74
0.40
1.57
2.45
2.83
2.67
2.09
1.26
0.38
-0.47
-1.30
-2.16
-3.01
-3.75
-4.19
-4.18
-3.67
-2.78
-1.70
-0.64
0.26
0.92
1.30
1.40
1.17
0.63
-0.13
-0.94
-1.59
-1.95
-2.01
-1.84
-1.60
-1.37
-1.22
-1.15
-1.15
-1.24
-1.46
-1.82
-2.29
-2.82
-3.27
-3.54
-3.57
-3.37
-3.04
-2.73
-2.50
-2.32
-2.08
-1.69
-1.11
-0.47
0.09
0.49
0.82
1.28
2.06
3.16
4.30
5.06
5.08
4.25
2.79
1.14
-0.28
-1.24
-1.81
-2.20
-2.63
-3.12
-3.51
-3.56
-3.13
-2.32
-1.37
-0.53
0.05
0.41
0.67
0.85
0.90
0.68
0.13
-0.65
-1.44
-1.98
-2.15
-2.01
-1.75
-1.59
-1.70
-2.05
-2.54
-2.96
-3.13
-2.96
-2.48
-1.86
-1.34
-1.12
-1.30
-1.80
-2.39
-2.78
-2.69
-1.99
-0.74
0.80
2.28
3.29
3.56
3.02
1.81
0.24
-1.28
-2.42
-2.96
-2.88
-2.33
-1.53
-0.69
0.03
0.58
1.00
1.35
1.66
1.92
2.11
2.18
2.13
2.00
1.83
1.66
1.48
1.24
0.89
0.40
-0.19
-0.74
-1.05
-1.03
-0.67
-0.15
0.28
0.42
0.23
-0.19
-0.64
-0.96
-1.06
-0.96
-0.72
-0.36
0.14
0.77
1.46
2.03
2.27
2.01
1.22
0.06
-1.19
-2.22
-2.81
-2.92
-2.65
-2.21
-1.75
-1.32
-0.85
-0.25
0.52
1.36
2.09
2.53
2.65
2.51
2.25
2.00
1.79
1.59
1.34
1.05
0.84
0.87
1.26
2.03
3.03
4.04
4.87
5.42
5.69
5.75
5.64
5.32
4.74
3.92
2.95
2.05
1.45
1.26
1.42
1.74
1.99
1.99
1.71
1.19
0.51
-0.25
-1.05
-1.82
-2.50
-3.01
-3.35
-3.62
-3.96
-4.47
-5.20
-6.03
-6.74
-7.17
-7.32
-7.29
-7.31
-7.50
-7.88
-8.30
-8.54
-8.48
-8.15
-7.75
-7.54
-7.77
-8.57
-9.92
-11.69
-13.69
-15.77
-17.85
-19.95
-22.13
-24.43
-26.78
-29.00
-30.85
-32.17
-32.94
-33.42
-33.99
-35.09
-37.06
-39.99
-43.78
-48.09
-52.43
-56.09
-58.21
-57.92
-54.55
-47.91
-38.43
-27.15
-15.42
-4.61
4.38
11.24
16.28
20.17
23.57
26.84
29.90
32.37
33.78
33.88
32.79
31.01
29.14
27.68
26.81
26.41
26.20
25.95
25.60
25.30
25.19
25.35
25.64
25.74
25.37
24.34
22.68
20.62
18.50
16.61
15.12
14.07
13.36
12.83
12.29
11.57
10.60
9.38
8.07
6.87
5.97
5.43
5.08
4.61
3.71
2.21
0.22
-1.90
-3.72
-4.99
-5.66
-5.98
-6.22
-6.56
-6.92
-7.08
-6.76
-5.81
-4.33
-2.53
-0.74
0.76
1.79
2.31
2.37
2.12
1.72
1.29
0.90
0.53
0.15
-0.20
-0.45
-0.45
-0.14
0.36
0.81
0.96
0.66
0.00
-0.77
-1.34
-1.51
-1.28
-0.80
-0.32
-0.05
-0.12
-0.61
-1.49
-2.72
-4.19
-5.72
-7.11
-8.20
-8.98
-9.56
-10.19
-11.14
-12.57
-14.44
-16.45
-18.18
-19.09
-18.80
-17.15
-14.26
-10.52
-6.45
-2.53
0.88
3.64
5.78
7.41
8.60
9.39
9.84
10.09
10.36
10.88
11.73
12.79
13.77
14.41
14.60
14.43
14.07
13.66
13.23
12.68
11.93
10.99
9.95
8.98
8.14
7.47
6.94
6.52
6.21
5.98
5.73
5.34
4.70
3.82
2.75
1.62
0.50
-0.59
-1.66
-2.71
-3.75
-4.85
-6.11
-7.69
-9.68
-11.93
-14.09
-15.64
-16.12
-15.27
-13.17
-10.16
-6.67
-3.04
0.46
3.69
6.53
8.82
10.41
11.28
11.59
11.68
11.91
12.58
13.70
15.05
16.23
16.87
16.82
16.14
15.15
14.19
13.53
13.26
13.24
13.23
13.02
12.49
11.66
10.58
9.36
8.00
6.54
4.98
3.42
2.01
0.89
0.19
-0.10
-0.08
0.11
0.28
0.28
-0.05
-0.83
-2.16
-4.04
-6.31
-8.68
-10.76
-12.18
-12.70
-12.26
-11.02
-9.28
-7.35
-5.56
-4.14
-3.14
-2.52
-2.11
-1.77
-1.42
-1.14
-1.06
-1.30
-1.85
-2.51
-3.01
-3.13
-2.81
-2.18
-1.46
-0.85
-0.35
0.11
0.70
1.49
2.44
3.43
4.29
4.92
5.30
5.49
5.59
5.66
5.74
5.85
6.04
6.34
6.81
7.49
8.34
9.23
10.02
10.49
10.47
9.88
8.80
7.45
6.13
5.16
4.69
4.68
4.88
5.01
4.92
4.65
4.40
4.40
4.75
5.25
5.58
5.45
4.77
3.75
2.73
2.05
1.75
1.65
1.44
0.91
0.08
-0.83
-1.51
-1.81
-1.80
-1.73
-1.86
-2.30
-2.87
-3.21
-2.99
-2.10
-0.71
0.77
1.90
2.36
2.07
1.18
0.00
-1.14
-1.96
-2.38
-2.46
-2.39
-2.40
-2.69
-3.29
-4.10
-4.94
-5.60
-5.98
-6.08
-6.00
-5.87
-5.79
-5.81
-5.87
-5.95
-5.99
-5.99
-5.98
-6.02
-6.11
-6.26
-6.42
-6.52
-6.57
-6.58
-6.62
-6.75
-7.02
-7.41
-7.86
-8.33
-8.73
-9.05
-9.28
-9.44
-9.59
-9.73
-9.85
-9.85
-9.65
-9.19
-8.54
-7.90
-7.53
-7.66
-8.36
-9.53
-10.90
-12.18
-13.13
-13.59
-13.47
-12.69
-11.18
-8.97
-6.30
-3.65
-1.64
-0.76
-1.16
-2.50
-4.06
-5.07
-4.94
-3.55
-1.19
1.64
4.43
6.86
8.75
10.06
10.73
10.69
9.91
8.47
6.66
4.97
3.89
3.79
4.64
6.02
7.34
8.05
7.91
7.08
5.98
5.07
4.59
4.60
4.93
5.47
6.07
6.69
7.23
7.65
7.94
8.19
8.58
9.26
10.23
11.31
12.19
12.63
12.50
11.82
10.71
9.30
7.80
6.51
5.86
6.23
7.75
10.09
12.54
14.23
14.53
13.30
10.92
8.04
5.28
3.00
1.30
0.13
-0.57
-0.74
-0.29
0.77
2.31
4.00
5.51
6.60
7.19
7.41
7.46
7.53
7.70
7.85
7.73
7.13
5.96
4.31
2.48
0.78
-0.53
-1.41
-1.92
-2.21
-2.43
-2.68
-3.08
-3.68
-4.46
-5.32
-6.06
-6.47
-6.41
-5.89
-5.10
-4.30
-3.70
-3.43
-3.43
-3.56
-3.61
-3.38
-2.67
-1.38
0.46
2.66
4.85
6.58
7.49
7.36
6.24
4.42
2.35
0.47
-0.90
-1.61
-1.70
-1.30
-0.54
0.49
1.76
3.24
4.86
6.38
7.48
7.78
7.02
5.17
2.47
-0.65
-3.70
-6.33
-8.40
-9.96
-11.19
-12.17
-12.93
-13.41
-13.62
-13.70
-13.88
-14.38
-15.18
-16.06
-16.61
-16.49
-15.65
-14.41
-13.24
-12.61
-12.65
-13.21
-13.90
-14.39
-14.48
-14.20
-13.67
-13.01
-12.34
-11.76
-11.51
-11.87
-13.03
-14.92
-16.98
-18.39
-18.25
-16.10
-12.01
-6.67
-1.01
4.12
8.21
11.08
12.79
13.52
13.46
12.90
12.23
11.91
12.28
13.42
15.02
16.53
17.39
17.23
16.10
14.36
12.59
11.37
11.02
11.51
12.50
13.59
14.55
15.49
16.91
19.41
23.49
29.35
36.84
45.61
55.22
65.27
75.28
84.68
92.78
98.99
103.00
104.93
105.21
104.26
102.20
98.69
93.19
85.35
75.56
64.96
55.12
47.38
42.21
39.10
36.89
34.47
31.27
27.35
22.99
18.17
12.27
4.32
-6.44
-19.96
-35.28
-50.97
-65.67
-78.56
-89.30
-97.70
-103.38
-105.86
-104.93
-100.95
-95.06
-88.65
-82.89
-78.24
-74.34
-70.41
-65.66
-59.65
-52.36
-44.01
-34.92
-25.33
-15.47
-5.52
4.29
13.56
21.73
28.04
31.72
32.17
29.26
23.36
15.29
6.09
-3.34
-12.34
-20.61
-28.12
-34.94
-41.06
-46.41
-50.77
-53.98
-56.00
-56.95
-57.10
-56.63
-55.53
-53.45
-50.02
-45.03
-38.76
-32.06
-26.02
-21.64
-19.32
-18.69
-18.84
-18.71
-17.56
-15.22
-12.07
-8.68
-5.55
-2.84
-0.51
1.56
3.43
5.00
6.19
6.98
7.41
7.53
7.25
6.40
4.75
2.31
-0.68
-3.75
-6.40
-8.28
-9.29
-9.53
-9.21
-8.55
-7.69
-6.71
-5.61
-4.45
-3.24
-2.06
-1.01
-0.17
0.49
1.09
1.80
2.75
3.84
4.81
5.29
5.06
4.15
2.91
1.79
1.13
1.02
1.23
1.41
1.28
0.79
0.15
-0.33
-0.41
-0.06
0.56
1.22
1.72
2.01
2.20
2.49
3.02
3.84
4.86
5.88
6.65
6.90
6.47
5.35
3.70
1.83
0.06
-1.36
-2.37
-3.02
-3.41
-3.56
-3.48
-3.16
-2.62
-1.98
-1.35
-0.81
-0.36
0.05
0.50
0.96
1.38
1.67
1.80
1.75
1.59
1.34
1.02
0.65
0.28
0.02
0.00
0.29
0.87
1.61
2.29
2.76
2.94
2.94
2.92
3.00
3.15
3.22
3.01
2.45
1.63
0.83
0.40
0.58
1.44
2.82
4.36
5.63
6.18
5.78
4.40
2.33
0.09
-1.80
-2.95
-3.30
-3.08
-2.63
-2.26
-2.08
-2.04
-2.01
-1.92
-1.80
-1.79
-1.99
-2.41
-2.91
-3.26
-3.23
-2.71
-1.76
-0.59
0.50
1.31
1.78
2.08
2.48
3.26
4.55
6.21
7.97
9.47
10.46
10.94
11.07
11.13
11.33
11.76
12.35
12.93
13.33
13.48
13.41
13.24
13.11
13.14
13.39
13.85
14.51
15.31
16.17
16.90
17.24
16.93
15.84
14.06
11.97
10.05
8.67
7.85
7.18
6.01
3.73
0.10
-4.66
-9.90
-14.82
-18.73
-21.27
-22.39
-22.36
-21.52
-20.25
-18.78
-17.34
-16.09
-15.22
-14.89
-15.14
-15.85
-16.63
-16.99
-16.49
-14.93
-12.48
-9.64
-6.97
-4.90
-3.59
-2.88
-2.47
-2.08
-1.63
-1.18
-0.83
-0.67
-0.66
-0.72
-0.70
-0.48
0.01
0.83
1.92
3.13
4.22
4.91
5.02
4.56
3.76
3.03
2.73
3.08
4.04
5.26
6.25
6.52
5.79
4.04
1.58
-1.11
-3.49
-5.16
-5.91
-5.82
-5.15
-4.27
-3.51
-3.02
-2.81
-2.72
-2.61
-2.39
-2.11
-1.82
-1.55
-1.23
-0.69
0.11
1.10
1.98
2.39
2.14
1.30
0.21
-0.66
-0.98
-0.73
-0.11
0.49
0.75
0.56
0.06
-0.41
-0.59
-0.32
0.24
0.78
0.96
0.60
-0.17
-1.01
-1.52
-1.47
-0.90
-0.14
0.53
0.89
1.01
1.04
1.18
1.53
2.16
3.13
4.48
6.17
7.92
9.26
9.66
8.69
6.32
2.94
-0.77
-4.10
-6.48
-7.72
-7.92
-7.35
-6.37
-5.31
-4.41
-3.80
-3.48
-3.40
-3.44
-3.45
-3.34
-3.03
-2.51
-1.85
-1.12
-0.46
0.05
0.41
0.70
1.06
1.58
2.34
3.27
4.18
4.81
4.86
4.18
2.82
1.08
-0.57
-1.70
-2.08
-1.80
-1.24
-0.82
-0.85
-1.34
-2.04
-2.54
-2.56
-1.96
-0.84
0.50
1.73
2.56
2.85
2.64
2.14
1.66
1.57
2.12
3.34
5.03
6.85
8.33
9.04
8.66
7.14
4.70
1.76
-1.17
-3.64
-5.41
-6.46
-6.91
-6.95
-6.69
-6.24
-5.66
-4.98
-4.27
-3.59
-2.94
-2.28
-1.56
-0.79
0.01
0.70
1.16
1.32
1.16
0.77
0.27
-0.15
-0.32
-0.12
0.44
1.24
2.01
2.50
2.54
2.13
1.49
0.90
0.63
0.78
1.30
1.97
2.57
2.98
3.18
3.23
3.21
3.10
2.85
2.42
1.84
1.20
0.60
0.15
-0.11
-0.19
-0.06
0.39
1.30
2.69
4.32
5.72
6.30
5.70
3.94
1.48
-1.03
-3.02
-4.28
-4.94
-5.23
-5.35
-5.30
-4.99
-4.39
-3.63
-2.95
-2.49
-2.27
-2.09
-1.71
-1.06
-0.22
0.58
1.13
1.37
1.40
1.38
1.45
1.69
2.11
2.63
3.15
3.60
3.88
3.94
3.78
3.45
3.01
2.62
2.38
2.31
2.35
2.39
2.31
2.15
1.98
1.99
2.27
2.82
3.44
3.90
4.00
3.67
2.98
2.05
1.04
0.13
-0.46
-0.45
0.35
1.85
3.62
4.99
5.38
4.56
2.79
0.62
-1.36
-2.79
-3.66
-4.18
-4.58
-4.99
-5.36
-5.59
-5.59
-5.34
-4.89
-4.37
-3.92
-3.68
-3.68
-3.84
-3.98
-3.91
-3.56
-3.10
-2.77
-2.80
-3.21
-3.76
-4.12
-3.96
-3.20
-1.98
-0.58
0.65
1.54
2.00
2.07
1.87
1.54
1.22
1.09
1.23
1.67
2.38
3.24
4.11
4.84
5.33
5.50
5.39
5.13
4.97
5.15
5.86
7.03
8.34
9.19
9.04
7.60
4.97
1.69
-1.56
-4.16
-5.82
-6.58
-6.73
-6.65
-6.57
-6.54
-6.43
-6.07
-5.39
-4.45
-3.45
-2.65
-2.23
-2.21
-2.48
-2.78
-2.88
-2.69
-2.25
-1.74
-1.35
-1.23
-1.35
-1.57
-1.65
-1.35
-0.61
0.49
1.68
2.65
3.19
3.24
2.92
2.42
1.91
1.42
0.97
0.59
0.35
0.35
0.66
1.21
1.82
2.34
2.76
3.29
4.18
5.55
7.22
8.67
9.30
8.62
6.57
3.43
-0.18
-3.63
-6.47
-8.46
-9.56
-9.81
-9.31
-8.08
-6.19
-3.83
-1.32
0.94
2.54
3.19
2.87
1.86
0.61
-0.45
-1.11
-1.41
-1.60
-1.93
-2.49
-3.13
-3.59
-3.61
-3.15
-2.33
-1.41
-0.62
-0.08
0.23
0.39
0.49
0.58
0.63
0.61
0.52
0.39
0.24
0.13
0.05
0.04
0.15
0.54
1.36
2.64
4.19
5.57
6.26
5.87
4.41
2.26
0.02
-1.80
-2.99
-3.66
-4.07
-4.36
-4.45
-4.08
-3.06
-1.45
0.36
1.81
2.46
2.13
0.99
-0.57
-2.11
-3.36
-4.14
-4.42
-4.21
-3.58
-2.64
-1.59
-0.64
0.06
0.45
0.63
0.69
0.74
0.80
0.87
0.98
1.22
1.71
2.48
3.44
4.31
4.82
4.85
4.52
4.26
4.50
5.50
7.14
8.90
10.08
10.09
8.76
6.32
3.35
0.48
-1.83
-3.42
-4.37
-4.87
-5.08
-5.03
-4.70
-4.09
-3.31
-2.61
-2.23
-2.36
-3.00
-4.01
-5.10
-6.00
-6.49
-6.51
-6.11
-5.42
-4.59
-3.66
-2.61
-1.38
0.07
1.65
3.20
4.47
5.23
5.42
5.10
4.52
3.98
3.70
3.81
4.29
5.01
5.82
6.55
7.02
7.08
6.55
5.30
3.30
0.69
-2.18
-4.89
-6.99
-8.21
-8.52
-8.04
-7.06
-5.80
-4.45
-3.13
-1.94
-0.99
-0.39
-0.16
-0.20
-0.38
-0.55
-0.63
-0.61
-0.54
-0.42
-0.25
0.01
0.40
0.87
1.30
1.57
1.60
1.40
1.11
0.92
1.06
1.71
2.91
4.52
6.20
7.45
7.77
6.88
4.83
2.02
-0.93
-3.39
-4.96
-5.56
-5.42
-4.95
-4.48
-4.13
-3.81
-3.34
-2.61
-1.69
-0.89
-0.54
-0.88
-1.84
-3.14
-4.30
-4.99
-5.13
-4.86
-4.43
-3.98
-3.43
-2.64
-1.52
-0.17
1.09
1.98
2.40
2.48
2.65
3.27
4.51
6.20
7.87
8.93
8.94
7.75
5.58
2.97
0.48
-1.41
-2.56
-3.08
-3.22
-3.15
-2.86
-2.18
-1.00
0.59
2.22
3.47
4.02
3.82
3.11
2.30
1.70
1.46
1.46
1.49
1.35
0.99
0.52
0.16
0.05
0.23
0.59
0.96
1.21
1.31
1.42
1.72
2.24
2.83
3.12
2.78
1.60
-0.34
-2.71
-5.04
-6.95
-8.22
-8.83
-8.86
-8.42
-7.57
-6.39
-4.93
-3.28
-1.60
-0.09
1.04
1.67
1.73
1.32
0.63
-0.10
-0.66
-0.95
-0.93
-0.70
-0.33
0.11
0.58
1.08
1.55
1.93
2.18
2.35
2.62
3.18
4.16
5.54
7.01
8.12
8.45
7.76
6.10
3.77
1.21
-1.21
-3.19
-4.59
-5.37
-5.54
-5.18
-4.42
-3.39
-2.30
-1.34
-0.65
-0.27
-0.13
-0.13
-0.16
-0.20
-0.27
-0.43
-0.69
-0.99
-1.24
-1.37
-1.44
-1.51
-1.71
-2.01
-2.33
-2.50
-2.39
-1.99
-1.31
-0.36
0.89
2.44
4.17
5.74
6.68
6.60
5.36
3.22
0.73
-1.46
-2.88
-3.43
-3.27
-2.77
-2.24
-1.88
-1.74
-1.70
-1.65
-1.53
-1.33
-1.15
-1.16
-1.45
-2.05
-2.84
-3.62
-4.19
-4.45
-4.38
-4.09
-3.69
-3.21
-2.64
-1.92
-0.97
0.20
1.48
2.67
3.54
3.92
3.84
3.43
2.89
2.44
2.15
2.03
1.96
1.78
1.44
0.95
0.43
0.01
-0.14
0.03
0.57
1.49
2.76
4.22
5.56
6.37
6.24
4.92
2.48
-0.68
-3.94
-6.68
-8.46
-9.19
-9.03
-8.29
-7.32
-6.41
-5.68
-5.19
-4.89
-4.65
-4.36
-3.89
-3.24
-2.47
-1.63
-0.79
0.02
0.82
1.61
2.29
2.70
2.71
2.28
1.58
0.90
0.58
0.77
1.46
2.43
3.41
4.19
4.65
4.81
4.73
4.46
4.04
3.49
2.92
2.44
2.19
2.21
2.48
2.85
3.13
3.15
2.80
2.10
1.11
-0.02
-1.08
-1.83
-2.01
-1.47
-0.25
1.40
2.94
3.80
3.55
2.06
-0.43
-3.36
-6.07
-7.97
-8.79
-8.58
-7.65
-6.43
-5.25
-4.34
-3.72
-3.37
-3.29
-3.48
-3.93
-4.55
-5.10
-5.24
-4.72
-3.45
-1.66
0.24
1.83
2.82
3.21
3.16
2.93
2.72
2.59
2.47
2.27
2.00
1.68
1.44
1.42
1.71
2.34
3.26
4.33
5.35
6.11
6.43
6.29
5.77
5.09
4.47
4.06
3.87
3.81
3.75
3.60
3.34
2.96
2.52
1.99
1.46
1.05
0.96
1.31
2.04
2.86
3.27
2.79
1.25
-1.15
-3.84
-6.17
-7.70
-8.34
-8.29
-7.86
-7.23
-6.48
-5.62
-4.68
-3.78
-3.04
-2.55
-2.26
-2.10
-1.92
-1.56
-0.95
-0.05
1.11
2.41
3.66
4.66
5.27
5.50
5.46
5.32
5.19
5.06
4.77
4.28
3.54
2.71
1.97
1.45
1.15
1.01
0.95
0.93
1.00
1.22
1.59
2.03
2.38
2.55
2.55
2.51
2.58
2.84
3.14
3.27
3.00
2.26
1.19
0.06
-0.89
-1.49
-1.74
-1.67
-1.38
-0.95
-0.45
-0.07
-0.01
-0.44
-1.40
-2.74
-4.15
-5.29
-5.90
-5.90
-5.29
-4.24
-2.93
-1.61
-0.53
0.19
0.52
0.59
0.64
0.91
1.44
2.14
2.76
3.07
2.98
2.57
2.09
1.75
1.67
1.81
2.06
2.24
2.25
2.06
1.72
1.33
0.99
0.76
0.62
0.49
0.31
0.04
-0.26
-0.48
-0.53
-0.38
-0.13
0.08
0.22
0.28
0.41
0.80
1.56
2.64
3.83
4.87
5.52
5.71
5.53
5.14
4.69
4.27
3.92
3.69
3.69
4.05
4.74
5.50
5.84
5.21
3.33
0.34
-3.16
-6.35
-8.54
-9.42
-9.23
-8.40
-7.41
-6.50
-5.68
-4.84
-3.84
-2.71
-1.58
-0.71
-0.25
-0.27
-0.67
-1.22
-1.66
-1.82
-1.57
-0.95
-0.12
0.74
1.44
1.91
2.20
2.39
2.56
2.70
2.72
2.57
2.21
1.71
1.24
0.96
1.00
1.31
1.69
1.92
1.83
1.42
0.86
0.38
0.23
0.46
1.03
1.77
2.51
3.13
3.60
3.92
4.08
4.05
3.78
3.29
2.72
2.32
2.29
2.76
3.59
4.44
4.84
4.42
3.08
1.03
-1.26
-3.23
-4.48
-4.89
-4.57
-3.75
-2.70
-1.61
-0.59
0.32
1.07
1.57
1.76
1.60
1.13
0.45
-0.29
-0.94
-1.43
-1.77
-2.10
-2.58
-3.34
-4.35
-5.46
-6.40
-6.94
-6.93
-6.42
-5.62
-4.77
-4.05
-3.50
-3.02
-2.41
-1.53
-0.32
1.10
2.55
3.83
4.77
5.33
5.54
5.47
5.24
4.94
4.61
4.28
3.97
3.66
3.34
2.95
2.51
2.11
1.98
2.35
3.40
5.01
6.73
7.90
7.85
6.29
3.39
-0.22
-3.74
-6.52
-8.28
-9.11
-9.26
-8.93
-8.17
-6.95
-5.29
-3.38
-1.51
-0.01
0.90
1.20
0.97
0.34
-0.61
-1.82
-3.18
-4.52
-5.60
-6.22
-6.27
-5.84
-5.12
-4.29
-3.49
-2.72
-1.93
-1.09
-0.24
0.53
1.04
1.23
1.10
0.74
0.34
0.06
0.04
0.38
1.07
2.07
3.21
4.30
5.07
5.31
4.91
3.96
2.74
1.72
1.48
2.52
5.00
8.64
12.58
15.70
16.95
15.75
12.23
7.22
1.91
-2.66
-5.88
-7.64
-8.21
-7.95
-7.15
-5.96
-4.53
-3.13
-2.07
-1.62
-1.89
-2.72
-3.72
-4.50
-4.85
-4.76
-4.44
-4.11
-3.92
-3.85
-3.80
-3.59
-3.14
-2.44
-1.57
-0.67
0.11
0.63
0.81
0.69
0.40
0.18
0.22
0.65
1.36
2.18
2.90
3.36
3.61
3.83
4.27
5.06
6.25
7.62
8.82
9.47
9.28
8.12
6.06
3.41
0.55
-2.15
-4.38
-5.96
-6.81
-6.95
-6.43
-5.37
-3.95
-2.42
-1.07
-0.18
0.09
-0.31
-1.22
-2.36
-3.42
-4.13
-4.41
-4.32
-4.07
-3.88
-3.83
-3.86
-3.76
-3.27
-2.30
-0.95
0.54
1.88
2.86
3.42
3.64
3.66
3.62
3.72
4.14
4.99
6.27
7.70
8.80
8.95
7.72
5.07
1.45
-2.42
-5.77
-8.14
-9.46
-9.95
-9.94
-9.62
-8.98
-7.94
-6.47
-4.72
-3.02
-1.65
-0.82
-0.51
-0.54
-0.76
-1.09
-1.52
-2.05
-2.58
-2.93
-2.88
-2.29
-1.18
0.25
1.73
3.05
4.09
4.81
5.25
5.48
5.58
5.73
6.07
6.68
7.48
8.19
8.40
7.76
6.13
3.62
0.63
-2.35
-4.86
-6.59
-7.39
-7.29
-6.47
-5.22
-3.86
-2.68
-1.82
-1.28
-0.94
-0.67
-0.45
-0.37
-0.53
-0.93
-1.47
-1.91
-2.05
-1.82
-1.35
-0.79
-0.28
0.18
0.67
1.27
1.98
2.71
3.38
3.98
4.65
5.57
6.80
8.19
9.34
9.73
8.90
6.74
3.46
-0.42
-4.26
-7.51
-9.85
-11.25
-11.78
-11.59
-10.77
-9.44
-7.73
-5.85
-4.02
-2.44
-1.19
-0.25
0.41
0.81
0.93
0.78
0.42
0.04
-0.17
-0.10
0.23
0.72
1.21
1.61
1.95
2.31
2.82
3.59
4.72
6.22
8.02
9.89
11.46
12.29
12.01
10.49
7.87
4.55
1.09
-1.99
-4.31
-5.72
-6.34
-6.38
-6.11
-5.66
-5.08
-4.33
-3.42
-2.48
-1.73
-1.39
-1.58
-2.25
-3.16
-4.08
-4.89
-5.60
-6.28
-6.96
-7.55
-7.80
-7.46
-6.44
-4.89
-3.13
-1.48
-0.15
0.90
1.84
2.93
4.28
5.89
7.59
9.12
10.19
10.54
9.96
8.40
5.96
2.94
-0.28
-3.31
-5.83
-7.64
-8.66
-8.93
-8.54
-7.65
-6.50
-5.29
-4.18
-3.25
-2.46
-1.76
-1.12
-0.57
-0.19
-0.07
-0.23
-0.65
-1.22
-1.82
-2.35
-2.74
-2.94
-2.94
-2.74
-2.35
-1.75
-0.95
-0.02
0.95
1.81
2.48
2.94
3.26
3.50
3.70
3.84
3.82
3.58
3.03
2.24
1.31
0.43
-0.22
-0.56
-0.58
-0.29
0.33
1.34
2.75
4.40
5.94
6.82
6.61
5.10
2.59
-0.35
-2.99
-4.83
-5.77
-6.06
-6.06
-6.04
-5.98
-5.66
-4.84
-3.44
-1.72
-0.12
0.94
1.26
0.98
0.41
-0.04
-0.18
0.01
0.37
0.68
0.86
0.89
0.89
0.96
1.18
1.56
1.99
2.28
2.13
1.40
0.11
-1.43
-2.75
-3.42
-3.28
-2.55
-1.63
-0.91
-0.55
-0.44
-0.30
0.05
0.63
1.29
1.88
2.34
2.77
3.29
3.98
4.75
5.38
5.73
5.78
5.68
5.71
6.01
6.48
6.74
6.32
4.89
2.48
-0.52
-3.57
-6.16
-8.05
-9.21
-9.70
-9.52
-8.64
-7.04
-4.96
-2.91
-1.39
-0.73
-0.90
-1.51
-2.10
-2.34
-2.17
-1.74
-1.26
-0.85
-0.56
-0.39
-0.35
-0.40
-0.50
-0.50
-0.28
0.17
0.72
1.18
1.41
1.52
1.73
2.27
3.13
4.10
4.87
5.28
5.32
5.11
4.73
4.07
2.99
1.46
-0.28
-1.81
-2.72
-2.89
-2.49
-1.89
-1.36
-0.91
-0.28
0.81
2.44
4.36
6.05
6.98
6.79
5.51
3.42
0.93
-1.57
-3.81
-5.61
-6.84
-7.44
-7.43
-6.93
-6.22
-5.55
-5.12
-4.88
-4.61
-4.06
-3.11
-1.80
-0.39
0.79
1.51
1.63
1.18
0.34
-0.62
-1.35
-1.50
-0.91
0.32
1.86
3.17
3.87
3.84
3.33
2.75
2.49
2.65
3.01
3.23
3.02
2.33
1.43
0.67
0.29
0.32
0.60
0.86
0.93
0.78
0.56
0.49
0.71
1.23
1.93
2.57
2.95
2.98
2.73
2.43
2.39
2.81
3.79
5.10
6.27
6.72
5.93
3.68
0.22
-3.84
-7.71
-10.75
-12.74
-13.78
-14.12
-13.81
-12.63
-10.24
-6.55
-1.93
2.70
6.34
8.33
8.65
7.92
6.91
6.24
5.97
5.82
5.40
4.55
3.42
2.38
1.73
1.49
1.47
1.35
0.96
0.37
-0.19
-0.45
-0.28
0.27
0.97
1.58
1.91
1.90
1.57
1.05
0.44
-0.13
-0.51
-0.63
-0.44
0.03
0.69
1.45
2.26
3.11
3.97
4.78
5.43
5.82
5.97
6.07
6.35
7.01
7.96
8.82
9.06
8.20
6.17
3.33
0.32
-2.29
-4.19
-5.46
-6.36
-7.06
-7.60
-7.82
-7.53
-6.72
-5.55
-4.29
-3.22
-2.50
-2.17
-2.23
-2.60
-3.21
-3.90
-4.53
-4.90
-4.89
-4.51
-3.81
-2.93
-1.99
-1.04
-0.09
0.85
1.74
2.49
3.01
3.29
3.39
3.47
3.66
3.96
4.26
4.41
4.32
4.03
3.74
3.61
3.73
4.04
4.35
4.49
4.38
4.05
3.57
3.06
2.63
2.41
2.55
3.20
4.33
5.73
6.88
7.13
5.97
3.28
-0.53
-4.65
-8.16
-10.40
-11.20
-10.88
-9.96
-8.95
-8.08
-7.28
-6.37
-5.18
-3.77
-2.38
-1.38
-1.02
-1.34
-2.09
-2.87
-3.28
-3.18
-2.69
-2.13
-1.77
-1.71
-1.78
-1.69
-1.25
-0.44
0.55
1.39
1.90
2.05
1.97
1.83
1.75
1.73
1.77
1.86
2.06
2.38
2.79
3.12
3.25
3.11
2.77
2.43
2.26
2.29
2.52
2.88
3.41
4.26
5.48
6.97
8.38
9.15
8.83
7.19
4.39
0.92
-2.61
-5.69
-7.97
-9.34
-9.86
-9.63
-8.76
-7.37
-5.59
-3.68
-1.92
-0.62
0.04
0.07
-0.38
-1.03
-1.70
-2.31
-2.90
-3.54
-4.22
-4.83
-5.19
-5.14
-4.62
-3.65
-2.27
-0.60
1.21
2.98
4.46
5.45
5.86
5.76
5.33
4.80
4.27
3.71
3.06
2.26
1.44
0.80
0.51
0.62
1.07
1.77
2.68
3.84
5.23
6.66
7.73
7.97
7.05
4.92
1.96
-1.24
-4.02
-5.92
-6.78
-6.72
-6.00
-4.87
-3.53
-2.08
-0.67
0.54
1.38
1.67
1.37
0.58
-0.51
-1.76
-3.10
-4.59
-6.20
-7.75
-8.91
-9.39
-9.03
-8.04
-6.80
-5.71
-4.99
-4.58
-4.20
-3.59
-2.54
-1.06
0.69
2.55
4.34
5.94
7.24
8.16
8.67
8.84
8.90
9.08
9.60
10.37
11.04
11.10
10.08
7.83
4.61
0.97
-2.40
-4.98
-6.56
-7.21
-7.16
-6.58
-5.61
-4.34
-2.91
-1.54
-0.44
0.17
0.23
-0.20
-0.96
-1.86
-2.75
-3.49
-4.02
-4.30
-4.36
-4.24
-4.04
-3.81
-3.55
-3.16
-2.60
-1.87
-1.12
-0.54
-0.24
-0.21
-0.25
-0.17
0.12
0.57
1.03
1.42
1.81
2.43
3.56
5.31
7.43
9.35
10.36
9.95
8.07
5.09
1.74
-1.26
-3.42
-4.65
-5.06
-4.87
-4.25
-3.26
-1.93
-0.37
1.10
2.10
2.26
1.48
-0.11
-2.08
-3.98
-5.40
-6.22
-6.49
-6.42
-6.22
-5.96
-5.58
-5.05
-4.31
-3.43
-2.54
-1.77
-1.20
-0.82
-0.54
-0.25
0.14
0.67
1.34
2.13
3.04
4.08
5.26
6.52
7.77
8.79
9.34
9.14
8.05
6.07
3.45
0.58
-2.08
-4.13
-5.42
-5.96
-5.96
-5.60
-5.03
-4.28
-3.36
-2.32
-1.29
-0.49
-0.11
-0.24
-0.75
-1.45
-2.07
-2.45
-2.51
-2.33
-2.04
-1.73
-1.42
-1.07
-0.64
-0.12
0.38
0.76
0.88
0.76
0.47
0.20
0.10
0.32
0.88
1.68
2.56
3.39
4.12
4.85
5.78
6.99
8.46
9.79
10.50
10.08
8.32
5.47
2.09
-1.13
-3.61
-5.14
-5.78
-5.74
-5.22
-4.36
-3.29
-2.16
-1.21
-0.61
-0.51
-0.87
-1.59
-2.52
-3.54
-4.53
-5.41
-6.10
-6.55
-6.75
-6.72
-6.52
-6.17
-5.68
-4.99
-4.04
-2.78
-1.23
0.47
2.14
3.52
4.42
4.74
4.52
3.90
3.13
2.47
2.21
2.60
3.71
5.41
7.26
8.61
8.86
7.65
5.14
1.89
-1.28
-3.68
-4.96
-5.12
-4.47
-3.36
-2.09
-0.83
0.34
1.38
2.21
2.77
2.98
2.76
2.10
1.04
-0.25
-1.58
-2.76
-3.70
-4.40
-4.97
-5.43
-5.70
-5.64
-5.11
-4.08
-2.73
-1.33
-0.17
0.59
0.92
0.96
0.85
0.74
0.76
1.01
1.56
2.45
3.74
5.38
7.30
9.24
10.84
11.66
11.30
9.64
6.88
3.57
0.35
-2.28
-4.11
-5.26
-5.96
-6.39
-6.53
-6.24
-5.44
-4.20
-2.86
-1.79
-1.32
-1.57
-2.42
-3.62
-4.88
-5.99
-6.85
-7.43
-7.71
-7.68
-7.34
-6.68
-5.77
-4.72
-3.69
-2.81
-2.08
-1.39
-0.55
0.59
2.01
3.58
5.04
6.24
7.16
7.95
8.77
9.66
10.42
10.71
10.14
8.52
5.94
2.75
-0.57
-3.59
-6.05
-7.87
-9.06
-9.67
-9.71
-9.14
-7.95
-6.23
-4.16
-2.02
-0.13
1.25
1.97
2.00
1.45
0.58
-0.28
-0.85
-0.98
-0.72
-0.23
0.27
0.68
1.03
1.42
1.96
2.59
3.17
3.45
3.31
2.74
1.92
1.14
0.69
0.76
1.45
2.75
4.47
6.32
7.80
8.42
7.79
5.83
2.79
-0.70
-3.92
-6.35
-7.74
-8.22
-8.08
-7.55
-6.71
-5.47
-3.78
-1.79
0.11
1.34
1.45
0.32
-1.74
-4.08
-6.03
-7.07
-7.11
-6.35
-5.18
-3.89
-2.64
-1.38
-0.03
1.42
2.91
4.32
5.51
6.39
6.94
7.14
7.01
6.57
5.88
5.10
4.44
4.15
4.35
4.94
5.62
5.93
5.42
3.82
1.22
-1.96
-5.16
-7.86
-9.79
-10.92
-11.43
-11.47
-11.09
-10.31
-9.11
-7.58
-5.92
-4.38
-3.13
-2.27
-1.78
-1.60
-1.67
-1.93
-2.30
-2.67
-2.92
-2.90
-2.58
-1.97
-1.14
-0.18
0.90
2.06
3.23
4.30
5.08
5.42
5.24
4.64
3.84
3.13
2.72
2.70
3.06
3.75
4.64
5.56
6.30
6.55
6.05
4.63
2.39
-0.36
-3.14
-5.46
-6.99
-7.64
-7.52
-6.85
-5.84
-4.62
-3.25
-1.85
-0.50
0.63
1.41
1.78
1.76
1.48
1.05
0.59
0.19
-0.11
-0.29
-0.32
-0.24
-0.05
0.18
0.37
0.43
0.24
-0.21
-0.88
-1.61
-2.20
-2.48
-2.36
-1.94
-1.45
-1.13
-1.12
-1.40
-1.71
-1.80
-1.45
-0.62
0.61
2.12
3.72
5.15
6.04
6.00
4.72
2.22
-1.02
-4.26
-6.70
-7.92
-7.94
-7.21
-6.29
-5.56
-5.10
-4.75
-4.31
-3.66
-2.83
-1.96
-1.19
-0.56
-0.13
0.10
0.12
-0.08
-0.46
-0.96
-1.44
-1.81
-1.96
-1.87
-1.51
-0.95
-0.28
0.37
0.85
1.08
1.04
0.82
0.59
0.56
0.89
1.57
2.49
3.43
4.15
4.54
4.56
4.33
4.01
3.72
3.55
3.50
3.57
3.72
3.99
4.46
5.09
5.70
5.94
5.43
3.94
1.56
-1.28
-3.98
-5.93
-6.86
-6.80
-6.05
-4.99
-3.88
-2.84
-1.84
-0.86
0.03
0.67
0.89
0.65
0.04
-0.69
-1.29
-1.55
-1.45
-1.12
-0.72
-0.35
0.02
0.47
1.12
1.94
2.79
3.49
3.90
3.97
3.80
3.57
3.43
3.46
3.57
3.58
3.27
2.51
1.34
-0.01
-1.22
-1.92
-1.98
-1.49
-0.75
-0.15
0.06
-0.09
-0.41
-0.63
-0.52
-0.03
0.80
1.87
3.06
4.24
5.19
5.60
5.19
3.83
1.67
-0.86
-3.19
-4.86
-5.65
-5.68
-5.23
-4.63
-4.04
-3.49
-2.93
-2.28
-1.59
-0.95
-0.50
-0.31
-0.28
-0.24
-0.07
0.28
0.71
1.02
1.10
0.95
0.74
0.67
0.92
1.48
2.18
2.87
3.35
3.59
3.60
3.39
3.03
2.57
2.14
1.90
1.99
2.40
3.05
3.73
4.28
4.69
5.05
5.50
6.10
6.76
7.26
7.38
6.94
5.94
4.50
2.93
1.56
0.74
0.64
1.19
2.05
2.72
2.75
1.90
0.21
-1.97
-4.21
-6.11
-7.45
-8.21
-8.48
-8.43
-8.17
-7.81
-7.41
-7.03
-6.69
-6.36
-5.98
-5.43
-4.68
-3.71
-2.57
-1.44
-0.48
0.16
0.40
0.28
-0.06
-0.39
-0.49
-0.24
0.34
1.08
1.69
1.92
1.68
1.06
0.37
-0.10
-0.13
0.23
0.82
1.39
1.75
1.88
1.85
1.74
1.55
1.21
0.61
-0.28
-1.34
-2.32
-2.89
-2.87
-2.15
-0.74
1.22
3.49
5.72
7.46
8.29
7.96
6.45
4.05
1.19
-1.68
-4.17
-6.03
-7.18
-7.62
-7.41
-6.75
-5.84
-4.90
-4.08
-3.42
-2.92
-2.58
-2.42
-2.45
-2.65
-2.86
-2.88
-2.54
-1.81
-0.83
0.14
0.92
1.50
1.94
2.40
2.98
3.65
4.27
4.68
4.75
4.49
4.01
3.52
3.23
3.22
3.48
3.90
4.35
4.80
5.26
5.79
6.34
6.81
7.00
6.77
6.19
5.51
5.13
5.39
6.42
8.02
9.73
10.96
11.15
9.89
7.13
3.18
-1.33
-5.57
-8.81
-10.64
-11.04
-10.35
-9.05
-7.52
-5.99
-4.50
-3.08
-1.85
-1.02
-0.77
-1.13
-1.91
-2.78
-3.43
-3.71
-3.68
-3.53
-3.44
-3.44
-3.39
-3.12
-2.49
-1.51
-0.35
0.69
1.32
1.38
0.91
0.11
-0.70
-1.26
-1.47
-1.38
-1.14
-0.87
-0.59
-0.27
0.14
0.68
1.28
1.92
2.62
3.46
4.54
5.88
7.32
8.53
9.10
8.70
7.24
4.89
2.06
-0.75
-3.10
-4.71
-5.52
-5.66
-5.25
-4.42
-3.24
-1.74
-0.09
1.41
2.37
2.50
1.73
0.29
-1.32
-2.60
-3.28
-3.35
-3.06
-2.68
-2.38
-2.15
-1.92
-1.60
-1.23
-0.84
-0.46
-0.02
0.60
1.44
2.43
3.38
4.17
4.74
5.17
5.59
6.05
6.53
6.96
7.31
7.59
7.75
7.68
7.11
5.77
3.55
0.67
-2.42
-5.14
-7.05
-7.97
-7.96
-7.21
-5.90
-4.19
-2.21
-0.20
1.58
2.75
3.06
2.45
1.07
-0.71
-2.53
-4.03
-5.06
-5.59
-5.76
-5.67
-5.42
-5.00
-4.39
-3.62
-2.77
-1.96
-1.30
-0.83
-0.52
-0.27
0.01
0.43
1.03
1.89
3.02
4.41
5.92
7.24
8.00
7.86
6.72
4.68
2.13
-0.45
-2.63
-4.09
-4.80
-4.83
-4.43
-3.76
-2.95
-2.00
-0.92
0.19
1.14
1.65
1.54
0.82
-0.33
-1.57
-2.63
-3.40
-3.94
-4.35
-4.68
-4.79
-4.49
-3.68
-2.44
-1.05
0.13
0.90
1.25
1.37
1.55
2.04
2.99
4.43
6.26
8.28
10.13
11.37
11.50
10.24
7.58
3.91
-0.10
-3.70
-6.33
-7.76
-8.12
-7.73
-6.93
-5.96
-4.84
-3.51
-1.98
-0.42
0.86
1.51
1.39
0.63
-0.38
-1.23
-1.71
-1.85
-1.95
-2.25
-2.73
-3.11
-3.00
-2.18
-0.78
0.75
1.84
2.15
1.73
0.98
0.43
0.46
1.15
2.31
3.58
4.62
5.13
4.95
4.05
2.52
0.55
-1.57
-3.54
-5.09
-6.04
-6.36
-6.09
-5.32
-4.18
-2.85
-1.51
-0.41
0.30
0.59
0.53
0.30
0.05
-0.13
-0.30
-0.58
-1.02
-1.59
-2.10
-2.33
-2.13
-1.53
-0.74
-0.03
0.35
0.27
-0.23
-0.93
-1.59
-1.98
-1.95
-1.45
-0.53
0.72
2.13
3.51
4.59
5.02
4.50
2.90
0.36
-2.64
-5.45
-7.46
-8.30
-8.00
-6.90
-5.45
-3.97
-2.61
-1.29
0.11
1.59
3.03
4.18
4.78
4.72
4.06
2.96
1.67
0.38
-0.84
-1.93
-2.86
-3.55
-3.87
-3.73
-3.12
-2.11
-0.82
0.50
1.66
2.46
2.78
2.69
2.36
2.05
1.98
2.24
2.76
3.36
3.78
3.85
3.51
2.86
2.09
1.49
1.30
1.72
2.76
4.18
5.49
6.11
5.62
3.91
1.32
-1.55
-3.98
-5.46
-5.85
-5.32
-4.22
-2.89
-1.54
-0.20
1.11
2.30
3.23
3.66
3.48
2.69
1.46
0.09
-1.18
-2.20
-2.94
-3.41
-3.64
-3.63
-3.39
-2.96
-2.45
-1.97
-1.53
-1.07
-0.49
0.28
1.21
2.12
2.81
3.13
3.08
2.79
2.46
2.21
2.11
2.06
2.00
1.90
1.81
1.83
2.00
2.26
2.48
2.57
2.54
2.51
2.67
3.11
3.75
4.31
4.41
3.74
2.15
-0.22
-3.02
-5.72
-7.83
-9.06
-9.34
-8.88
-8.02
-7.07
-6.18
-5.35
-4.50
-3.62
-2.75
-2.00
-1.43
-1.02
-0.65
-0.16
0.54
1.43
2.33
3.01
3.29
3.16
2.76
2.36
2.17
2.19
2.29
2.25
1.97
1.51
1.05
0.74
0.61
0.46
0.05
-0.76
-1.83
-2.89
-3.58
-3.75
-3.46
-2.92
-2.39
-2.04
-1.89
-1.89
-1.97
-2.04
-2.05
-1.86
-1.35
-0.35
1.19
3.19
5.29
7.01
7.82
7.36
5.58
2.82
-0.31
-3.11
-5.05
-5.94
-5.95
-5.45
-4.84
-4.40
-4.19
-4.13
-4.13
-4.09
-3.97
-3.76
-3.39
-2.83
-2.13
-1.39
-0.85
-0.63
-0.78
-1.08
-1.25
-1.03
-0.28
0.91
2.28
3.54
4.49
5.01
5.17
5.11
4.98
4.89
4.93
5.14
5.49
5.97
6.44
6.75
6.70
6.20
5.31
4.23
3.30
2.76
2.68
3.00
3.48
3.94
4.22
4.30
4.20
3.99
3.75
3.55
3.36
3.07
2.45
1.28
-0.53
-2.90
-5.45
-7.77
-9.42
-10.15
-9.96
-9.02
-7.61
-6.01
-4.43
-3.05
-1.96
-1.21
-0.79
-0.61
-0.60
-0.66
-0.72
-0.78
-0.87
-1.08
-1.44
-1.96
-2.52
-2.92
-2.92
-2.33
-1.19
0.33
1.88
3.11
3.90
4.30
4.55
4.89
5.43
6.08
6.59
6.75
6.46
5.82
5.03
4.35
3.98
3.91
4.01
4.09
3.93
3.49
2.90
2.37
2.19
2.52
3.44
4.88
6.66
8.51
10.08
10.91
10.59
8.91
5.98
2.28
-1.53
-4.84
-7.29
-8.81
-9.57
-9.73
-9.41
-8.67
-7.63
-6.49
-5.56
-5.06
-5.07
-5.44
-5.92
-6.21
-6.18
-5.84
-5.29
-4.72
-4.17
-3.68
-3.17
-2.62
-2.10
-1.66
-1.41
-1.35
-1.39
-1.41
-1.29
-1.03
-0.62
-0.18
0.28
0.73
1.20
1.70
2.20
2.73
3.26
3.83
4.42
4.99
5.45
5.75
5.96
6.22
6.72
7.60
8.90
10.40
11.75
12.46
12.10
10.38
7.35
3.42
-0.74
-4.42
-7.09
-8.55
-8.93
-8.57
-7.76
-6.70
-5.42
-3.98
-2.52
-1.31
-0.63
-0.63
-1.15
-1.83
-2.27
-2.23
-1.77
-1.23
-0.98
-1.18
-1.76
-2.35
-2.59
-2.29
-1.56
-0.67
0.08
0.55
0.79
0.95
1.19
1.57
2.01
2.40
2.64
2.68
2.48
2.05
1.42
0.76
0.31
0.41
1.32
3.06
5.30
7.44
8.75
8.71
7.18
4.44
1.08
-2.23
-4.97
-6.88
-7.90
-8.07
-7.48
-6.23
-4.46
-2.38
-0.34
1.25
2.10
2.05
1.23
-0.08
-1.43
-2.42
-2.84
-2.70
-2.23
-1.78
-1.63
-1.85
-2.26
-2.54
-2.37
-1.64
-0.53
0.61
1.41
1.68
1.47
1.10
0.91
1.17
1.98
3.30
4.94
6.73
8.40
9.69
10.26
9.82
8.16
5.30
1.50
-2.75
-6.79
-10.04
-12.12
-12.95
-12.72
-11.67
-10.12
-8.23
-6.07
-3.77
-1.56
0.20
1.19
1.24
0.52
-0.64
-1.81
-2.75
-3.41
-3.94
-4.46
-4.98
-5.31
-5.17
-4.37
-2.93
-1.17
0.47
1.61
2.10
2.09
1.92
2.02
2.67
3.96
5.76
7.76
9.56
10.71
10.87
9.79
7.53
4.36
0.80
-2.56
-5.22
-6.99
-7.91
-8.21
-8.13
-7.79
-7.20
-6.33
-5.19
-3.95
-2.89
-2.25
-2.18
-2.65
-3.40
-4.12
-4.46
-4.27
-3.61
-2.66
-1.64
-0.77
-0.10
0.39
0.77
1.03
1.17
1.14
0.92
0.60
0.30
0.09
0.02
0.06
0.24
0.63
1.38
2.52
3.90
5.15
5.81
5.55
4.29
2.35
0.19
-1.68
-2.99
-3.70
-3.94
-3.91
-3.73
-3.48
-3.15
-2.81
-2.51
-2.30
-2.20
-2.16
-2.13
-2.09
-2.05
-2.04
-2.07
-2.08
-1.95
-1.55
-0.84
0.09
1.04
1.84
2.39
2.77
3.15
3.72
4.56
5.58
6.59
7.39
7.84
7.90
7.66
7.26
6.89
6.69
6.76
7.07
7.44
7.53
6.98
5.58
3.30
0.43
-2.66
-5.48
-7.74
-9.32
-10.24
-10.63
-10.61
-10.25
-9.57
-8.58
-7.28
-5.76
-4.20
-2.77
-1.64
-0.85
-0.33
0.02
0.25
0.41
0.48
0.42
0.24
-0.01
-0.26
-0.39
-0.29
0.11
0.84
1.79
2.72
3.42
3.68
3.56
3.26
3.08
3.18
3.52
3.87
3.98
3.72
3.18
2.56
2.03
1.70
1.54
1.54
1.67
1.91
2.16
2.27
1.97
1.14
-0.20
-1.85
-3.46
-4.75
-5.57
-5.93
-5.86
-5.43
-4.64
-3.50
-2.13
-0.72
0.49
1.27
1.48
1.18
0.50
-0.31
-0.95
-1.23
-1.04
-0.44
0.36
1.08
1.55
1.71
1.67
1.65
1.81
2.18
2.67
3.17
3.58
3.90
4.19
4.51
4.87
5.24
5.53
5.62
5.43
4.94
4.15
3.14
2.00
0.91
-0.03
-0.71
-1.08
-1.15
-0.90
-0.38
0.31
0.95
1.24
0.88
-0.26
-2.09
-4.26
-6.27
-7.66
-8.18
-7.84
-6.88
-5.65
-4.39
-3.27
-2.35
-1.64
-1.16
-0.90
-0.88
-1.07
-1.40
-1.77
-2.07
-2.19
-2.06
-1.67
-1.07
-0.32
0.44
1.18
1.86
2.50
3.12
3.72
4.28
4.73
5.05
5.24
5.31
5.26
5.05
4.63
4.02
3.33
2.73
2.37
2.25
2.29
2.33
2.23
2.03
1.85
1.82
2.00
2.40
2.90
3.40
3.87
4.20
4.27
3.83
2.65
0.70
-1.79
-4.32
-6.28
-7.25
-7.18
-6.36
-5.28
-4.38
-3.79
-3.37
-2.84
-1.94
-0.66
0.75
1.92
2.48
2.35
1.63
0.67
-0.21
-0.73
-0.80
-0.52
-0.09
0.26
0.37
0.19
-0.19
-0.56
-0.76
-0.66
-0.29
0.24
0.80
1.27
1.70
2.17
2.74
3.39
3.96
4.32
4.39
4.22
3.96
3.71
3.54
3.39
3.18
2.86
2.52
2.39
2.69
3.50
4.63
5.68
6.16
5.67
4.12
1.75
-0.91
-3.30
-4.95
-5.73
-5.80
-5.45
-4.93
-4.32
-3.60
-2.64
-1.53
-0.51
0.06
-0.11
-1.12
-2.68
-4.32
-5.52
-5.99
-5.75
-5.08
-4.37
-3.93
-3.78
-3.77
-3.55
-2.88
-1.69
-0.10
1.57
2.99
3.94
4.35
4.33
4.06
3.79
3.69
3.86
4.26
4.77
5.21
5.45
5.38
5.04
4.53
4.03
3.75
3.85
4.45
5.52
6.82
7.96
8.42
7.78
5.87
2.90
-0.64
-4.07
-6.83
-8.61
-9.41
-9.49
-9.17
-8.67
-8.08
-7.32
-6.29
-4.98
-3.59
-2.43
-1.82
-1.89
-2.47
-3.20
-3.64
-3.53
-2.96
-2.22
-1.72
-1.64
-1.93
-2.25
-2.31
-1.92
-1.21
-0.45
0.10
0.36
0.55
0.93
1.76
2.97
4.31
5.40
6.02
6.19
6.13
6.10
6.22
6.40
6.45
6.24
5.75
5.23
4.88
4.79
4.74
4.35
3.28
1.45
-0.82
-3.03
-4.66
-5.45
-5.51
-5.08
-4.44
-3.71
-2.79
-1.60
-0.17
1.24
2.17
2.29
1.43
-0.22
-2.22
-4.09
-5.49
-6.35
-6.78
-6.98
-7.09
-7.06
-6.76
-6.01
-4.78
-3.16
-1.44
0.09
1.22
1.95
2.44
2.95
3.65
4.57
5.56
6.36
6.81
6.91
6.93
7.24
8.14
9.65
11.40
12.75
13.00
11.75
8.96
5.08
0.77
-3.26
-6.48
-8.67
-9.80
-10.01
-9.44
-8.19
-6.41
-4.27
-2.05
-0.10
1.23
1.74
1.43
0.55
-0.56
-1.60
-2.39
-2.97
-3.48
-4.06
-4.71
-5.31
-5.68
-5.63
-5.04
-3.99
-2.62
-1.16
0.19
1.24
1.89
2.14
2.06
1.83
1.69
1.92
2.65
3.84
5.20
6.21
6.41
5.52
3.63
1.19
-1.22
-3.08
-4.16
-4.53
-4.44
-4.17
-3.88
-3.60
-3.25
-2.76
-2.19
-1.66
-1.42
-1.64
-2.35
-3.44
-4.65
-5.69
-6.35
-6.54
-6.27
-5.62
-4.64
-3.36
-1.75
0.16
2.20
4.11
5.59
6.46
6.69
6.48
6.06
5.67
5.40
5.26
5.20
5.26
5.58
6.27
7.30
8.39
9.01
8.60
6.80
3.64
-0.38
-4.56
-8.18
-10.71
-12.02
-12.26
-11.73
-10.73
-9.48
-8.11
-6.74
-5.47
-4.41
-3.62
-3.09
-2.75
-2.43
-2.05
-1.54
-0.98
-0.51
-0.23
-0.18
-0.26
-0.37
-0.37
-0.24
0.02
0.34
0.74
1.23
1.85
2.53
3.18
3.63
3.71
3.39
2.77
2.03
1.34
0.88
0.80
1.21
2.10
3.31
4.47
5.10
4.83
3.54
1.50
-0.77
-2.69
-3.86
-4.23
-4.04
-3.66
-3.34
-3.18
-3.08
-2.94
-2.74
-2.57
-2.61
-2.95
-3.57
-4.31
-4.94
-5.26
-5.18
-4.71
-3.95
-2.98
-1.84
-0.59
0.70
1.85
2.71
3.16
3.20
2.95
2.63
2.41
2.38
2.55
2.78
2.91
2.74
2.18
1.20
-0.09
-1.43
-2.52
-2.99
-2.63
-1.42
0.31
2.02
3.07
2.95
1.53
-0.90
-3.69
-6.09
-7.56
-7.89
-7.20
-5.84
-4.20
-2.54
-1.08
0.02
0.64
0.64
0.04
-1.04
-2.33
-3.51
-4.35
-4.76
-4.85
-4.80
-4.83
-5.07
-5.52
-5.99
-6.18
-5.85
-4.91
-3.46
-1.76
-0.21
0.88
1.36
1.24
0.76
0.21
-0.18
-0.35
-0.37
-0.45
-0.72
-1.26
-1.93
-2.54
-2.94
-3.06
-2.97
-2.79
-2.65
-2.63
-2.83
-3.38
-4.49
-6.18
-8.24
-10.16
-11.25
-10.94
-9.04
-5.90
-2.24
1.20
3.90
5.75
6.93
7.69
8.21
8.53
8.62
8.52
8.24
7.85
7.35
6.69
5.85
4.92
4.08
3.55
3.48
3.85
4.53
5.35
6.17
6.89
7.48
7.85
7.94
7.73
7.29
6.77
6.38
6.25
6.35
6.56
6.58
6.29
5.60
4.63
3.58
2.62
1.85
1.29
0.93
0.78
0.81
0.90
0.81
0.21
-1.22
-3.56
-6.59
-9.79
-12.53
-14.26
-14.71
-13.95
-12.35
-10.45
-8.79
-7.81
-7.66
-8.22
-9.09
-9.68
-9.41
-7.95
-5.36
-2.11
1.14
3.69
5.08
5.20
4.20
2.43
0.27
-1.97
-3.94
-5.34
-5.88
-5.41
-3.96
-1.85
0.48
2.55
4.09
5.03
5.43
5.45
5.18
4.72
4.18
3.74
3.58
3.76
4.19
4.60
4.76
4.59
4.23
3.95
4.02
4.53
5.29
5.87
5.78
4.66
2.52
-0.30
-3.12
-5.28
-6.31
-6.22
-5.37
-4.27
-3.31
-2.59
-1.95
-1.17
-0.11
1.05
2.05
2.63
2.73
2.58
2.53
2.87
3.65
4.64
5.48
5.88
5.79
5.43
5.10
4.99
5.12
5.31
5.38
5.24
4.93
4.55
4.18
3.78
3.34
2.90
2.55
2.45
2.61
2.89
3.06
2.99
2.74
2.57
2.79
3.58
4.85
6.31
7.57
8.35
8.50
8.04
7.02
5.50
3.55
1.21
-1.34
-3.82
-5.91
-7.33
-7.91
-7.66
-6.71
-5.24
-3.44
-1.48
0.51
2.33
3.77
4.58
4.61
3.85
2.45
0.71
-1.05
-2.60
-3.80
-4.56
-4.82
-4.54
-3.73
-2.58
-1.39
-0.52
-0.17
-0.25
-0.47
-0.44
0.07
1.10
2.33
3.33
3.74
3.36
2.29
0.90
-0.31
-0.78
-0.08
1.94
5.01
8.52
11.68
13.75
14.32
13.42
11.40
8.85
6.32
4.18
2.61
1.61
1.08
0.85
0.78
0.71
0.53
0.13
-0.54
-1.44
-2.51
-3.59
-4.53
-5.18
-5.51
-5.54
-5.42
-5.29
-5.24
-5.24
-5.14
-4.80
-4.13
-3.20
-2.21
-1.40
-0.97
-0.94
-1.20
-1.59
-1.90
-2.03
-1.87
-1.39
-0.49
0.80
2.32
3.69
4.41
4.12
2.74
0.50
-2.10
-4.59
-6.63
-8.15
-9.18
-9.76
-9.81
-9.22
-7.89
-5.91
-3.58
-1.34
0.33
1.08
0.83
-0.21
-1.59
-2.88
-3.71
-3.98
-3.80
-3.42
-3.05
-2.77
-2.51
-2.10
-1.45
-0.64
0.13
0.60
0.63
0.24
-0.33
-0.77
-0.83
-0.41
0.36
1.33
2.33
3.31
4.20
4.84
5.00
4.41
2.98
0.89
-1.39
-3.32
-4.51
-4.89
-4.75
-4.47
-4.35
-4.45
-4.58
-4.47
-3.91
-2.91
-1.62
-0.33
0.69
1.31
1.47
1.30
0.94
0.62
0.43
0.44
0.55
0.64
0.58
0.34
0.00
-0.26
-0.28
-0.01
0.49
1.02
1.37
1.43
1.18
0.79
0.50
0.49
0.85
1.57
2.55
3.63
4.65
5.34
5.49
4.87
3.40
1.19
-1.47
-4.08
-6.19
-7.49
-7.96
-7.77
-7.29
-6.83
-6.53
-6.39
-6.24
-5.85
-5.10
-4.05
-2.88
-1.91
-1.33
-1.14
-1.27
-1.48
-1.57
-1.44
-1.09
-0.56
0.10
0.88
1.82
2.82
3.76
4.34
4.34
3.63
2.27
0.50
-1.36
-3.06
-4.47
-5.54
-6.35
-6.92
-7.27
-7.36
-7.17
-6.69
-5.93
-5.02
-4.13
-3.55
-3.57
-4.38
-5.97
-8.05
-10.09
-11.54
-12.00
-11.36
-9.90
-8.10
-6.32
-4.79
-3.48
-2.22
-0.98
0.20
1.15
1.74
2.04
2.28
2.75
3.64
4.84
6.04
6.82
6.93
6.35
5.30
4.14
3.24
2.87
3.31
4.61
6.70
9.21
11.55
13.08
13.43
12.56
10.90
9.13
7.75
6.97
6.65
6.44
6.12
5.67
5.19
4.82
4.57
4.31
3.92
3.29
2.43
1.30
-0.07
-1.72
-3.69
-5.88
-8.08
-9.96
-11.19
-11.55
-10.98
-9.63
-7.77
-5.77
-3.96
-2.60
-1.78
-1.42
-1.29
-1.13
-0.66
0.23
1.50
2.96
4.38
5.54
6.35
6.77
6.90
6.82
6.58
6.23
5.80
5.32
4.81
4.28
3.72
3.17
2.66
2.30
2.18
2.29
2.60
2.90
3.03
2.89
2.55
2.15
1.87
1.76
1.78
1.79
1.70
1.52
1.35
1.31
1.47
1.72
1.84
1.58
0.73
-0.71
-2.50
-4.26
-5.55
-6.03
-5.64
-4.55
-3.11
-1.71
-0.55
0.27
0.83
1.20
1.47
1.64
1.69
1.65
1.56
1.55
1.71
2.05
2.50
2.98
3.41
3.76
4.04
4.24
4.34
4.35
4.29
4.33
4.57
5.14
5.98
6.90
7.60
7.83
7.54
6.80
5.87
4.93
4.08
3.27
2.47
1.69
1.00
0.54
0.39
0.59
1.04
1.64
2.21
2.54
2.38
1.53
-0.05
-2.17
-4.42
-6.33
-7.55
-7.97
-7.70
-7.06
-6.27
-5.42
-4.49
-3.38
-2.11
-0.89
-0.01
0.34
0.17
-0.25
-0.49
-0.26
0.58
1.83
3.14
4.19
4.83
5.11
5.22
5.31
5.48
5.70
5.92
6.08
6.15
6.15
6.09
5.98
5.84
5.65
5.40
5.10
4.75
4.40
4.13
3.97
4.00
4.25
4.69
5.26
5.77
5.95
5.51
4.20
1.97
-1.02
-4.34
-7.50
-10.02
-11.65
-12.37
-12.40
-11.93
-11.14
-10.04
-8.60
-6.81
-4.80
-2.83
-1.19
-0.15
0.22
-0.01
-0.58
-1.12
-1.34
-1.01
-0.14
1.10
2.41
3.48
4.10
4.16
3.69
2.80
1.67
0.52
-0.39
-0.82
-0.63
0.09
1.08
1.99
2.54
2.67
2.60
2.65
3.05
3.80
4.67
5.30
5.42
4.86
3.71
2.17
0.47
-1.17
-2.66
-3.90
-4.82
-5.29
-5.21
-4.52
-3.24
-1.56
0.23
1.78
2.84
3.29
3.20
2.70
1.99
1.17
0.36
-0.35
-0.83
-0.97
-0.72
-0.18
0.44
0.92
1.11
1.01
0.73
0.40
0.11
-0.10
-0.20
-0.07
0.46
1.45
2.78
4.07
4.86
4.76
3.69
1.88
-0.25
-2.32
-4.09
-5.55
-6.80
-7.93
-8.89
-9.49
-9.50
-8.73
-7.15
-4.95
-2.48
-0.15
1.68
2.80
3.22
3.07
2.50
1.70
0.81
0.01
-0.49
-0.51
0.09
1.23
2.68
4.08
5.15
5.75
5.88
5.67
5.25
4.71
4.10
3.49
3.01
2.81
2.93
3.24
3.44
3.20
2.31
0.78
-1.10
-3.00
-4.59
-5.74
-6.43
-6.70
-6.54
-5.85
-4.53
-2.57
-0.13
2.43
4.64
6.16
6.76
6.52
5.70
4.70
3.82
3.22
2.93
2.89
3.03
3.33
3.77
4.26
4.68
4.82
4.54
3.85
2.91
2.01
1.47
1.49
2.03
2.84
3.49
3.53
2.77
1.19
-0.91
-3.15
-5.19
-6.83
-7.95
-8.49
-8.34
-7.45
-5.88
-3.79
-1.59
0.36
1.76
2.54
2.74
2.55
2.12
1.56
0.95
0.33
-0.21
-0.62
-0.85
-0.93
-0.92
-0.88
-0.88
-0.89
-0.88
-0.74
-0.36
0.39
1.52
2.93
4.45
5.76
6.59
6.60
5.63
3.64
0.88
-2.20
-5.03
-7.11
-8.19
-8.34
-7.88
-7.19
-6.44
-5.61
-4.57
-3.20
-1.64
-0.20
0.74
0.90
0.32
-0.77
-2.01
-3.15
-3.99
-4.46
-4.52
-4.10
-3.23
-2.08
-0.90
0.03
0.49
0.48
0.09
-0.49
-1.05
-1.35
-1.20
-0.50
0.67
1.99
2.95
3.06
2.06
0.07
-2.42
-4.82
-6.67
-7.72
-7.97
-7.47
-6.35
-4.72
-2.80
-0.89
0.65
1.58
1.86
1.63
1.13
0.59
0.09
-0.39
-0.93
-1.47
-1.86
-1.91
-1.44
-0.49
0.74
1.93
2.70
2.80
2.14
0.88
-0.62
-1.92
-2.63
-2.56
-1.82
-0.75
0.17
0.56
0.20
-0.84
-2.30
-3.84
-5.14
-6.01
-6.39
-6.35
-6.02
-5.52
-4.96
-4.43
-3.93
-3.51
-3.16
-2.89
-2.78
-2.91
-3.37
-4.11
-4.98
-5.71
-6.05
-5.89
-5.34
-4.66
-4.05
-3.60
-3.29
-3.00
-2.70
-2.47
-2.46
-2.78
-3.38
-4.10
-4.77
-5.27
-5.60
-5.80
-5.93
-5.97
-5.96
-5.98
-6.22
-6.92
-8.28
-10.32
-12.84
-15.48
-17.78
-19.32
-19.81
-19.16
-17.49
-14.99
-12.06
-9.06
-6.33
-4.10
-2.40
-1.02
0.34
1.98
4.02
6.30
8.46
10.07
10.88
10.90
10.34
9.58
8.88
8.38
8.06
7.79
7.51
7.21
6.84
6.37
5.70
4.76
3.61
2.39
1.31
0.53
0.00
-0.43
-1.01
-1.89
-3.04
-4.25
-5.33
-6.11
-6.62
-7.06
-7.69
-8.75
-10.36
-12.50
-14.95
-17.33
-19.22
-20.12
-19.71
-17.83
-14.60
-10.46
-5.91
-1.49
2.42
5.62
8.11
9.99
11.38
12.32
12.85
13.03
12.95
12.79
12.71
12.78
12.95
13.11
13.16
13.06
12.84
12.59
12.32
11.98
11.47
10.73
9.82
8.93
8.31
8.09
8.20
8.38
8.32
7.73
6.63
5.27
4.01
3.10
2.56
2.19
1.64
0.71
-0.57
-1.97
-3.15
-3.92
-4.26
-4.40
-4.65
-5.34
-6.72
-8.84
-11.59
-14.70
-17.70
-20.07
-21.31
-21.04
-19.11
-15.72
-11.33
-6.55
-1.99
1.93
5.06
7.49
9.44
11.09
12.50
13.63
14.41
14.91
15.31
15.77
16.42
17.19
17.89
18.32
18.42
18.24
17.94
17.62
17.24
16.66
15.73
14.50
13.18
12.07
11.37
11.09
10.93
10.56
9.66
8.21
6.42
4.61
3.09
1.96
1.21
0.72
0.41
0.20
0.03
-0.15
-0.42
-0.85
-1.40
-2.02
-2.59
-2.99
-3.10
-2.90
-2.45
-2.01
-1.96
-2.73
-4.58
-7.43
-10.82
-14.03
-16.31
-17.21
-16.65
-14.91
-12.40
-9.44
-6.31
-3.14
-0.13
2.39
4.15
4.99
5.00
4.51
3.96
3.68
3.75
3.99
4.08
3.76
3.04
2.14
1.49
1.45
2.14
3.38
4.79
5.88
6.35
6.23
5.84
5.63
5.87
6.49
7.18
7.55
7.40
6.84
6.16
5.54
4.98
4.30
3.30
2.06
0.86
0.11
0.01
0.46
1.12
1.66
1.99
2.30
2.87
3.75
4.70
5.15
4.55
2.63
-0.37
-3.82
-6.89
-8.89
-9.57
-9.07
-7.80
-6.20
-4.54
-2.86
-1.13
0.63
2.15
3.10
3.16
2.30
0.84
-0.69
-1.74
-2.07
-1.74
-1.11
-0.55
-0.24
-0.11
0.11
0.64
1.52
2.61
3.60
4.25
4.46
4.38
4.21
4.13
4.20
4.29
4.23
3.87
3.21
2.34
1.41
0.59
-0.02
-0.38
-0.53
-0.48
-0.35
-0.27
-0.43
-0.85
-1.50
-2.08
-2.29
-1.86
-0.83
0.44
1.38
1.45
0.44
-1.52
-3.90
-6.12
-7.73
-8.55
-8.63
-8.14
-7.18
-5.79
-4.02
-1.94
0.22
2.22
3.79
4.82
5.29
5.30
4.94
4.35
3.56
2.64
1.69
0.74
-0.11
-0.83
-1.39
-1.77
-1.97
-1.99
-1.85
-1.62
-1.37
-1.17
-1.03
-0.98
-0.97
-0.94
-0.81
-0.53
-0.01
0.72
1.58
2.45
3.19
3.68
3.84
3.69
3.33
2.90
2.57
2.53
2.93
3.78
4.93
5.94
6.34
5.62
3.58
0.39
-3.42
-7.09
-9.91
-11.44
-11.59
-10.63
-8.94
-6.92
-4.87
-2.97
-1.26
0.20
1.35
2.08
2.35
2.14
1.59
0.90
0.27
-0.20
-0.54
-0.85
-1.25
-1.77
-2.20
-2.27
-1.67
-0.30
1.65
3.75
5.51
6.57
6.82
6.46
5.80
5.11
4.42
3.65
2.65
1.48
0.39
-0.22
-0.06
0.87
2.19
3.26
3.51
2.66
0.80
-1.72
-4.48
-7.18
-9.62
-11.62
-12.93
-13.26
-12.38
-10.35
-7.50
-4.40
-1.61
0.50
1.84
2.49
2.60
2.34
1.83
1.21
0.61
0.10
-0.34
-0.76
-1.20
-1.60
-1.78
-1.57
-0.91
0.06
1.05
1.74
2.00
1.88
1.58
1.28
1.09
1.07
1.27
1.80
2.75
4.02
5.24
5.81
5.17
3.08
-0.17
-3.83
-6.98
-8.90
-9.28
-8.28
-6.34
-3.97
-1.54
0.72
2.67
4.11
4.87
4.79
3.84
2.22
0.23
-1.73
-3.39
-4.59
-5.35
-5.73
-5.81
-5.65
-5.26
-4.69
-4.00
-3.23
-2.41
-1.63
-0.92
-0.42
-0.25
-0.50
-1.13
-1.95
-2.63
-2.80
-2.20
-0.83
0.97
2.63
3.50
3.05
1.14
-1.91
-5.47
-8.80
-11.28
-12.65
-12.93
-12.39
-11.34
-10.01
-8.52
-6.87
-5.08
-3.20
-1.41
0.06
1.01
1.34
1.16
0.73
0.35
0.22
0.36
0.64
0.83
0.78
0.51
0.23
0.14
0.43
1.10
2.02
2.95
3.67
4.03
3.99
3.61
3.00
2.32
1.64
1.03
0.52
0.15
-0.08
-0.30
-0.72
-1.72
-3.59
-6.42
-9.89
-13.38
-16.13
-17.54
-17.36
-15.76
-13.26
-10.36
-7.52
-4.94
-2.65
-0.60
1.18
2.60
3.51
3.79
3.48
2.74
1.83
0.93
0.08
-0.82
-1.86
-3.00
-4.07
-4.74
-4.75
-4.03
-2.71
-1.04
0.76
2.57
4.31
5.89
7.16
7.89
7.89
7.08
5.56
3.57
1.43
-0.56
-2.22
-3.46
-4.42
-5.38
-6.67
-8.62
-11.34
-14.75
-18.43
-21.77
-24.15
-25.07
-24.31
-22.04
-18.65
-14.71
-10.74
-7.10
-4.02
-1.52
0.48
2.16
3.72
5.34
7.15
9.17
11.27
13.23
14.90
16.21
17.23
18.08
18.83
19.45
19.76
19.63
18.96
17.84
16.43
14.93
13.39
11.78
10.07
8.34
6.74
5.48
4.59
3.85
2.95
1.61
-0.17
-2.12
-3.82
-4.88
-5.15
-4.75
-4.04
-3.43
-3.44
-4.48
-6.82
-10.41
-14.74
-18.95
-22.00
-23.19
-22.33
-19.92
-16.81
-13.90
-11.70
-10.29
-9.46
-8.97
-8.79
-9.11
-10.18
-12.05
-14.54
-17.34
-20.18
-22.99
-25.98
-29.43
-33.48
-37.99
-42.63
-47.04
-51.04
-54.76
-58.63
-63.11
-68.52
-74.93
-82.11
-89.76
-97.65
-105.61
-113.55
-121.24
-128.27
-134.05
-137.87
-139.05
-137.04
-131.38
-121.72
-107.80
-89.52
-66.97
-40.47
-10.75
21.08
53.41
84.35
111.81
134.02
149.81
158.91
162.05
160.53
155.97
149.78
143.00
136.19
129.58
123.23
117.19
111.45
105.95
100.58
95.11
89.35
83.19
76.75
70.26
64.02
58.23
53.00
48.32
44.03
40.00
36.16
32.58
29.31
26.43
23.94
21.73
19.66
17.67
15.78
14.09
12.73
11.71
11.03
10.55
10.13
9.66
9.06
8.33
7.47
6.50
5.48
4.51
3.71
3.23
3.15
3.41
3.91
4.48
4.94
5.13
4.91
4.09
2.56
0.32
-2.46
-5.40
-8.05
-10.02
-11.16
-11.59
-11.53
-11.15
-10.47
-9.38
-7.76
-5.70
-3.52
-1.74
-0.82
-0.98
-2.07
-3.63
-5.09
-5.99
-6.13
-5.61
-4.65
-3.55
-2.46
-1.47
-0.54
0.31
1.05
1.62
1.96
2.12
2.10
1.97
1.74
1.43
1.02
0.57
0.12
-0.25
-0.49
-0.61
-0.57
-0.36
0.11
0.88
1.98
3.27
4.55
5.47
5.67
4.91
3.12
0.51
-2.51
-5.41
-7.74
-9.21
-9.79
-9.63
-8.99
-8.06
-6.89
-5.47
-3.80
-2.09
-0.62
0.28
0.40
-0.13
-0.96
-1.64
-1.80
-1.34
-0.43
0.56
1.28
1.52
1.29
0.79
0.30
0.03
0.13
0.51
1.00
1.42
1.69
1.80
1.83
1.84
1.83
1.78
1.63
1.35
1.09
1.08
1.58
2.70
4.30
5.92
6.92
6.68
4.91
1.74
-2.29
-6.49
-10.23
-13.14
-15.10
-16.16
-16.37
-15.71
-14.20
-12.00
-9.40
-6.85
-4.81
-3.59
-3.29
-3.79
-4.80
-5.95
-6.90
-7.41
-7.36
-6.78
-5.75
-4.40
-2.83
-1.16
0.47
1.86
2.89
3.50
3.77
3.86
3.91
3.95
3.89
3.60
3.04
2.33
1.70
1.39
1.58
2.27
3.26
4.22
4.79
4.57
3.28
0.93
-2.14
-5.35
-7.97
-9.42
-9.56
-8.61
-7.05
-5.32
-3.64
-1.92
-0.03
2.10
4.27
6.08
7.11
7.13
6.19
4.58
2.72
0.97
-0.41
-1.32
-1.75
-1.75
-1.42
-0.86
-0.24
0.23
0.40
0.27
-0.05
-0.35
-0.41
-0.19
0.20
0.52
0.56
0.23
-0.38
-1.03
-1.48
-1.47
-0.86
0.35
1.96
3.57
4.63
4.55
2.97
-0.06
-4.04
-8.16
-11.55
-13.57
-14.04
-13.22
-11.60
-9.77
-8.09
-6.70
-5.50
-4.34
-3.15
-1.95
-0.87
-0.07
0.36
0.44
0.26
-0.01
-0.26
-0.38
-0.38
-0.30
-0.18
-0.06
0.03
0.11
0.26
0.48
0.78
1.07
1.24
1.18
0.86
0.31
-0.37
-1.08
-1.72
-2.20
-2.38
-2.12
-1.27
0.19
2.04
3.77
4.77
4.52
2.84
0.04
-3.21
-6.16
-8.26
-9.30
-9.46
-8.94
-8.02
-6.81
-5.34
-3.72
-2.14
-0.79
0.11
0.50
0.49
0.24
-0.03
-0.18
-0.17
-0.03
0.13
0.22
0.13
-0.15
-0.61
-1.19
-1.72
-2.08
-2.18
-1.96
-1.46
-0.73
0.11
0.99
1.84
2.62
3.32
3.88
4.29
4.47
4.40
4.08
3.51
2.80
2.15
1.75
1.81
2.43
3.43
4.38
4.71
3.87
1.63
-1.80
-5.76
-9.39
-11.94
-13.05
-12.81
-11.67
-10.16
-8.67
-7.37
-6.27
-5.38
-4.74
-4.47
-4.67
-5.29
-6.22
-7.16
-7.75
-7.65
-6.55
-4.36
-1.20
2.53
6.30
9.51
11.78
13.05
13.45
13.30
12.87
12.28
11.60
10.84
10.05
9.35
8.86
8.62
8.61
8.70
8.68
8.41
7.86
7.09
6.25
5.47
4.81
4.31
4.00
3.92
4.14
4.58
4.95
4.80
3.70
1.43
-1.74
-5.20
-8.16
-10.03
-10.64
-10.23
-9.27
-8.12
-6.92
-5.60
-4.05
-2.28
-0.49
0.98
1.84
2.00
1.50
0.53
-0.63
-1.71
-2.42
-2.57
-2.10
-1.19
-0.13
0.70
1.08
1.04
0.86
0.81
1.04
1.43
1.73
1.73
1.38
0.89
0.51
0.45
0.73
1.28
1.93
2.56
3.09
3.51
3.81
3.98
4.05
4.06
4.09
4.28
4.76
5.57
6.59
7.56
8.02
7.55
5.89
3.10
-0.43
-4.10
-7.34
-9.79
-11.34
-12.01
-11.90
-11.04
-9.43
-7.13
-4.38
-1.61
0.72
2.20
2.70
2.37
1.53
0.55
-0.30
-0.91
-1.29
-1.54
-1.74
-1.91
-2.01
-1.91
-1.52
-0.80
0.19
1.28
2.26
2.91
3.15
2.98
2.58
2.13
1.79
1.60
1.56
1.64
1.82
2.08
2.33
2.43
2.32
2.04
1.87
2.21
3.34
5.19
7.32
8.92
9.20
7.70
4.51
0.21
-4.30
-8.16
-10.80
-12.03
-12.04
-11.17
-9.86
-8.40
-6.93
-5.48
-4.05
-2.71
-1.61
-0.94
-0.80
-1.16
-1.78
-2.43
-2.90
-3.07
-2.94
-2.55
-1.96
-1.20
-0.34
0.57
1.47
2.34
3.19
4.04
4.83
5.54
6.04
6.23
6.09
5.71
5.25
4.84
4.58
4.53
4.68
5.03
5.44
5.74
5.63
4.80
3.04
0.35
-3.02
-6.60
-9.92
-12.54
-14.18
-14.78
-14.32
-12.89
-10.67
-7.88
-4.88
-2.08
0.09
1.29
1.32
0.28
-1.56
-3.75
-5.83
-7.42
-8.34
-8.53
-8.08
-7.12
-5.72
-3.95
-1.89
0.34
2.53
4.45
5.88
6.65
6.74
6.23
5.35
4.38
3.66
3.47
3.94
4.99
6.27
7.25
7.37
6.23
3.77
0.31
-3.61
-7.32
-10.32
-12.32
-13.28
-13.33
-12.58
-11.11
-8.95
-6.29
-3.41
-0.84
0.93
1.55
0.96
-0.53
-2.42
-4.16
-5.42
-6.01
-5.98
-5.42
-4.48
-3.32
-2.09
-0.94
0.10
1.09
2.20
3.46
4.80
5.98
6.69
6.77
6.23
5.31
4.27
3.38
2.81
2.63
2.85
3.37
3.95
4.10
3.32
1.26
-2.03
-6.03
-9.85
-12.67
-13.94
-13.68
-12.28
-10.31
-8.31
-6.55
-5.12
-3.94
-2.91
-2.04
-1.36
-1.00
-1.02
-1.42
-2.02
-2.56
-2.76
-2.45
-1.67
-0.63
0.32
1.01
1.35
1.50
1.62
1.84
2.13
2.40
2.52
2.43
2.13
1.69
1.22
0.81
0.53
0.53
0.89
1.68
2.81
4.03
4.88
4.88
3.65
1.07
-2.57
-6.73
-10.68
-13.80
-15.71
-16.35
-15.87
-14.55
-12.72
-10.62
-8.45
-6.39
-4.59
-3.15
-2.10
-1.44
-1.10
-1.03
-1.15
-1.41
-1.64
-1.70
-1.42
-0.75
0.25
1.43
2.56
3.50
4.18
4.60
4.81
4.81
4.60
4.13
3.38
2.44
1.48
0.67
0.18
0.02
0.09
0.19
0.12
-0.24
-0.86
-1.60
-2.27
-2.76
-3.07
-3.38
-3.91
-4.95
-6.62
-8.83
-11.28
-13.51
-15.05
-15.63
-15.21
-14.05
-12.52
-10.90
-9.36
-7.85
-6.27
-4.54
-2.74
-1.04
0.35
1.30
1.82
2.11
2.47
3.12
4.22
5.64
7.12
8.25
8.73
8.48
7.66
6.72
6.17
6.36
7.30
8.65
9.85
10.40
10.08
9.05
7.78
6.74
6.23
6.22
6.41
6.42
5.95
4.95
3.54
1.96
0.43
-0.90
-2.00
-2.92
-3.74
-4.63
-5.80
-7.42
-9.61
-12.29
-15.19
-17.87
-19.84
-20.71
-20.29
-18.67
-16.14
-13.05
-9.75
-6.48
-3.39
-0.58
1.85
3.83
5.34
6.41
7.19
7.84
8.47
9.07
9.63
10.10
10.55
11.07
11.75
12.58
13.43
14.09
14.45
14.50
14.29
13.92
13.36
12.53
11.40
10.01
8.63
7.54
6.97
7.01
7.50
8.21
8.89
9.33
9.38
8.94
7.97
6.54
4.88
3.36
2.42
2.40
3.39
5.10
6.89
7.98
7.65
5.57
2.00
-2.37
-6.57
-9.83
-11.73
-12.33
-11.89
-10.76
-9.11
-7.02
-4.60
-2.07
0.20
1.90
2.86
3.20
3.19
3.16
3.33
3.77
4.40
5.11
5.76
6.27
6.58
6.68
6.61
6.41
6.17
5.96
5.82
5.81
5.91
6.03
6.02
5.70
4.99
3.99
2.96
2.25
2.16
2.72
3.73
4.79
5.53
5.78
5.60
5.25
4.96
4.81
4.83
4.98
5.31
5.90
6.70
7.42
7.57
6.57
4.10
0.28
-4.29
-8.70
-12.10
-13.99
-14.32
-13.47
-11.95
-10.21
-8.50
-6.82
-5.10
-3.32
-1.63
-0.34
0.28
0.15
-0.53
-1.36
-1.90
-1.95
-1.59
-1.13
-0.81
-0.66
-0.47
0.07
1.12
2.55
3.95
4.89
5.17
4.85
4.26
3.78
3.62
3.82
4.22
4.65
4.95
5.07
5.02
4.86
4.60
4.34
4.16
4.20
4.61
5.47
6.70
7.99
8.84
8.64
6.98
3.76
-0.64
-5.46
-9.80
-12.95
-14.59
-14.80
-13.95
-12.47
-10.69
-8.74
-6.66
-4.49
-2.30
-0.31
1.21
1.96
1.78
0.72
-0.98
-2.87
-4.52
-5.51
-5.68
-5.06
-3.86
-2.33
-0.72
0.77
2.04
3.07
3.91
4.58
5.09
5.36
5.26
4.71
3.72
2.46
1.25
0.45
0.38
1.18
2.73
4.62
6.30
7.17
6.74
4.85
1.62
-2.53
-6.96
-11.00
-14.07
-15.81
-16.10
-15.07
-13.00
-10.26
-7.26
-4.34
-1.81
0.02
0.95
0.87
-0.07
-1.53
-2.98
-3.94
-4.18
-3.75
-2.95
-2.17
-1.63
-1.38
-1.23
-0.98
-0.50
0.14
0.80
1.29
1.51
1.51
1.45
1.50
1.89
2.79
4.24
6.11
8.02
9.38
9.61
8.29
5.42
1.46
-2.87
-6.83
-9.84
-11.65
-12.28
-11.87
-10.61
-8.68
-6.33
-3.88
-1.73
-0.25
0.34
-0.00
-1.06
-2.48
-3.82
-4.75
-5.08
-4.84
-4.21
-3.40
-2.59
-1.87
-1.25
-0.72
-0.32
-0.14
-0.25
-0.64
-1.21
-1.80
-2.28
-2.61
-2.75
-2.71
-2.43
-1.89
-1.19
-0.63
-0.62
-1.55
-3.52
-6.22
-9.09
-11.49
-12.96
-13.39
-12.96
-11.93
-10.46
-8.60
-6.43
-4.20
-2.28
-1.07
-0.72
-1.05
-1.67
-2.16
-2.26
-2.00
-1.57
-1.16
-0.83
-0.54
-0.22
0.19
0.68
1.27
1.98
2.83
3.72
4.44
4.73
4.37
3.43
2.14
0.91
0.13
0.00
0.55
1.56
2.69
3.49
3.47
2.25
-0.26
-3.79
-7.67
-11.09
-13.37
-14.15
-13.55
-11.96
-9.86
-7.60
-5.34
-3.07
-0.86
1.19
2.88
4.04
4.59
4.54
4.05
3.34
2.63
2.09
1.83
1.85
2.07
2.38
2.62
2.69
2.56
2.30
2.04
1.90
1.92
2.01
2.05
1.86
1.36
0.56
-0.43
-1.42
-2.29
-2.92
-3.28
-3.33
-3.12
-2.76
-2.49
-2.67
-3.63
-5.54
-8.27
-11.35
-14.15
-16.04
-16.59
-15.67
-13.44
-10.22
-6.47
-2.68
0.69
3.32
5.08
6.10
6.71
7.24
7.91
8.76
9.65
10.33
10.68
10.64
10.30
9.82
9.32
8.98
8.98
9.37
10.16
11.18
12.18
12.89
13.14
12.95
12.45
11.83
11.21
10.56
9.81
8.84
7.60
6.17
4.64
3.15
1.82
0.78
0.08
-0.32
-0.60
-1.08
-2.13
-3.94
-6.43
-9.19
-11.60
-13.05
-13.16
-11.99
-9.85
-7.24
-4.59
-2.11
0.12
2.10
3.77
4.96
5.49
5.27
4.52
3.56
2.86
2.69
3.12
3.90
4.69
5.19
5.30
5.19
5.17
5.51
6.35
7.64
9.04
10.21
10.80
10.68
9.91
8.69
7.36
6.21
5.41
5.07
5.11
5.37
5.60
5.58
5.22
4.61
4.09
4.08
4.93
6.67
8.89
10.86
11.83
11.27
9.10
5.67
1.64
-2.30
-5.58
-7.85
-9.01
-9.09
-8.26
-6.76
-4.82
-2.70
-0.72
0.78
1.52
1.38
0.46
-0.90
-2.20
-2.99
-3.02
-2.34
-1.24
-0.08
0.83
1.32
1.43
1.32
1.18
1.16
1.31
1.59
1.86
2.03
2.04
1.96
1.90
1.96
2.22
2.61
3.05
3.43
3.64
3.63
3.39
2.97
2.49
2.16
2.24
2.92
4.18
5.73
7.02
7.44
6.57
4.35
1.15
-2.36
-5.53
-7.90
-9.38
-10.07
-10.14
-9.65
-8.63
-7.07
-5.13
-3.15
-1.59
-0.86
-1.08
-2.08
-3.45
-4.71
-5.52
-5.81
-5.71
-5.43
-5.10
-4.68
-4.03
-3.03
-1.71
-0.29
0.94
1.75
2.12
2.29
2.59
3.28
4.39
5.72
6.93
7.71
7.91
7.61
7.01
6.31
5.66
5.16
4.86
4.83
5.09
5.56
5.92
5.73
4.55
2.17
-1.25
-5.18
-8.91
-11.79
-13.50
-14.02
-13.57
-12.44
-10.83
-8.83
-6.55
-4.17
-2.01
-0.41
0.39
0.35
-0.32
-1.23
-2.04
-2.54
-2.71
-2.67
-2.57
-2.47
-2.31
-1.98
-1.45
-0.77
-0.10
0.40
0.72
0.91
1.14
1.58
2.26
3.06
3.82
4.37
4.68
4.81
4.97
5.35
6.11
7.24
8.52
9.51
9.59
8.22
5.20
0.86
-4.04
-8.51
-11.78
-13.51
-13.85
-13.26
-12.24
-11.07
-9.81
-8.45
-6.97
-5.48
-4.13
-3.04
-2.23
-1.67
-1.31
-1.16
-1.29
-1.68
-2.27
-2.84
-3.12
-2.96
-2.28
-1.17
0.18
1.54
2.71
3.57
4.13
4.48
4.71
4.90
5.01
4.92
4.56
3.92
3.16
2.51
2.21
2.43
3.12
4.13
5.11
5.60
5.16
3.49
0.56
-3.25
-7.25
-10.67
-12.91
-13.77
-13.45
-12.37
-10.93
-9.36
-7.67
-5.79
-3.83
-1.98
-0.54
0.24
0.28
-0.29
-1.22
-2.31
-3.40
-4.35
-5.05
-5.37
-5.21
-4.50
-3.39
-2.04
-0.73
0.32
0.97
1.20
1.08
0.76
0.40
0.11
-0.03
-0.06
-0.06
-0.05
0.03
0.28
0.86
1.83
3.15
4.73
6.33
7.66
8.35
7.99
6.29
3.31
-0.61
-4.79
-8.48
-11.15
-12.53
-12.73
-12.03
-10.77
-9.24
-7.70
-6.30
-5.17
-4.42
-4.06
-4.08
-4.45
-5.06
-5.78
-6.37
-6.63
-6.37
-5.57
-4.34
-2.84
-1.24
0.42
2.10
3.74
5.20
6.23
6.62
6.35
5.65
4.95
4.61
4.76
5.23
5.62
5.48
4.64
3.31
1.93
1.07
1.11
2.13
3.82
5.64
6.94
7.19
6.15
3.92
0.92
-2.27
-5.05
-7.00
-7.97
-8.02
-7.35
-6.18
-4.72
-3.02
-1.12
0.99
3.24
5.47
7.43
8.83
9.49
9.35
8.58
7.44
6.18
4.90
3.61
2.31
1.09
0.15
-0.26
-0.04
0.70
1.65
2.46
2.86
2.85
2.53
2.15
1.91
1.92
2.20
2.66
3.21
3.72
4.13
4.38
4.56
4.79
5.24
5.97
6.91
7.80
8.26
7.92
6.56
4.25
1.31
-1.78
-4.51
-6.53
-7.69
-8.04
-7.70
-6.77
-5.33
-3.46
-1.38
0.60
2.10
2.77
2.48
1.43
-0.06
-1.58
-2.75
-3.45
-3.73
-3.75
-3.70
-3.65
-3.50
-3.09
-2.28
-1.05
0.43
1.89
3.03
3.68
3.83
3.68
3.41
3.20
3.12
3.09
2.96
2.62
2.05
1.40
0.87
0.73
1.17
2.22
3.69
5.25
6.45
6.91
6.35
4.68
2.07
-1.07
-4.19
-6.80
-8.58
-9.53
-9.85
-9.72
-9.18
-8.06
-6.16
-3.51
-0.52
2.15
3.77
3.95
2.85
1.02
-0.82
-2.11
-2.70
-2.77
-2.63
-2.51
-2.42
-2.16
-1.55
-0.50
0.80
2.07
3.03
3.58
3.83
4.07
4.54
5.23
5.96
6.40
6.33
5.72
4.79
3.89
3.37
3.48
4.29
5.60
6.98
7.82
7.54
5.81
2.78
-0.86
-4.23
-6.57
-7.57
-7.49
-6.88
-6.24
-5.70
-5.03
-3.89
-2.12
0.07
2.14
3.48
3.71
2.82
1.12
-0.90
-2.81
-4.30
-5.26
-5.72
-5.70
-5.27
-4.47
-3.36
-2.00
-0.53
0.93
2.25
3.28
3.92
4.16
4.04
3.67
3.23
2.91
2.83
3.12
3.80
4.86
6.14
7.37
8.11
7.91
6.46
3.77
0.20
-3.65
-7.18
-9.99
-11.99
-13.26
-13.89
-13.86
-13.03
-11.37
-9.06
-6.54
-4.39
-3.09
-2.84
-3.53
-4.79
-6.23
-7.45
-8.15
-8.22
-7.65
-6.58
-5.24
-3.86
-2.58
-1.43
-0.35
0.69
1.62
2.25
2.43
2.11
1.40
0.60
0.03
-0.10
0.37
1.39
2.79
4.25
5.30
5.41
4.16
1.48
-2.28
-6.29
-9.63
-11.53
-11.71
-10.45
-8.43
-6.37
-4.81
-3.91
-3.58
-3.63
-3.88
-4.20
-4.50
-4.66
-4.58
-4.20
-3.65
-3.11
-2.81
-2.83
-3.08
-3.24
-3.05
-2.33
-1.15
0.26
1.56
2.48
2.82
2.47
1.44
-0.19
-2.17
-4.22
-6.06
-7.40
-8.20
-8.53
-8.74
-9.26
-10.52
-12.78
-16.04
-19.99
-24.02
-27.48
-29.75
-30.51
-29.75
-27.74
-24.85
-21.48
-17.90
-14.31
-10.89
-7.84
-5.37
-3.62
-2.60
-2.18
-2.09
-2.03
-1.77
-1.17
-0.15
1.31
3.16
5.25
7.28
8.88
9.69
9.61
8.82
7.70
6.65
5.89
5.33
4.66
3.55
1.88
-0.26
-2.57
-4.80
-6.78
-8.51
-10.14
-11.82
-13.74
-16.17
-19.40
-23.53
-28.31
-33.00
-36.38
-37.17
-34.52
-28.40
-19.60
-9.54
0.30
8.86
15.63
20.67
24.23
26.54
27.71
27.80
26.97
25.64
24.31
23.42
23.19
23.49
24.01
24.47
24.74
24.90
25.12
25.50
25.88
25.91
25.18
23.50
21.02
18.17
15.50
13.39
11.90
10.75
9.53
7.88
5.61
2.78
-0.39
-3.58
-6.45
-8.78
-10.51
-11.82
-13.16
-15.15
-18.35
-22.96
-28.62
-34.34
-38.77
-40.53
-38.59
-32.67
-23.28
-11.63
0.75
12.30
21.86
28.86
33.25
35.38
35.72
34.79
33.09
31.18
29.62
28.86
29.05
29.88
30.72
30.94
30.21
28.66
26.79
25.17
24.12
23.58
23.21
22.64
21.61
20.08
18.17
16.06
13.90
11.85
10.02
8.48
7.29
6.40
5.71
5.07
4.33
3.45
2.48
1.54
0.85
0.54
0.59
0.79
0.75
0.04
-1.72
-4.54
-8.11
-11.79
-14.87
-16.77
-17.18
-16.13
-13.91
-10.89
-7.43
-3.86
-0.44
2.58
4.96
6.55
7.36
7.57
7.47
7.36
7.40
7.56
7.69
7.60
7.25
6.76
6.35
6.20
6.27
6.41
6.39
6.14
5.75
5.45
5.39
5.55
5.73
5.67
5.25
4.53
3.74
3.09
2.67
2.38
2.00
1.36
0.41
-0.71
-1.78
-2.56
-2.91
-2.81
-2.34
-1.54
-0.45
0.88
2.28
3.32
3.50
2.37
-0.16
-3.77
-7.67
-11.02
-13.18
-13.93
-13.47
-12.13
-10.31
-8.18
-5.85
-3.38
-0.99
0.99
2.23
2.54
2.00
0.98
-0.04
-0.67
-0.71
-0.30
0.27
0.73
0.91
0.88
0.80
0.89
1.17
1.51
1.73
1.70
1.35
0.76
0.06
-0.64
-1.26
-1.76
-2.11
-2.26
-2.18
-1.83
-1.27
-0.55
0.25
1.09
1.88
2.64
3.40
4.21
5.08
5.84
6.25
5.92
4.56
2.09
-1.24
-4.92
-8.29
-10.82
-12.20
-12.41
-11.60
-10.06
-8.11
-6.07
-4.22
-2.87
-2.21
-2.38
-3.29
-4.78
-6.50
-8.03
-9.00
-9.16
-8.47
-7.13
-5.46
-3.78
-2.30
-1.05
0.04
1.04
1.98
2.80
3.41
3.67
3.60
3.25
2.84
2.61
2.74
3.21
3.86
4.36
4.36
3.71
2.56
1.26
0.27
-0.09
0.14
0.59
0.67
-0.17
-2.17
-5.22
-8.88
-12.60
-15.86
-18.36
-20.00
-20.82
-20.93
-20.43
-19.45
-18.15
-16.71
-15.32
-14.13
-13.17
-12.36
-11.58
-10.78
-10.01
-9.47
-9.38
-9.90
-11.00
-12.42
-13.82
-14.87
-15.47
-15.78
-16.13
-16.88
-18.26
-20.26
-22.67
-25.19
-27.62
-29.95
-32.31
-34.91
-37.92
-41.43
-45.41
-49.75
-54.27
-58.80
-63.14
-67.26
-71.30
-75.65
-80.87
-87.52
-95.69
-104.78
-113.30
-119.27
-120.74
-116.58
-106.84
-92.85
-76.72
-60.65
-46.25
-34.26
-24.54
-16.38
-8.92
-1.45
6.42
14.87
23.84
33.11
42.31
50.95
58.47
64.45
68.66
71.17
72.32
72.57
72.30
71.78
71.03
69.89
68.04
65.10
60.83
55.21
48.61
41.72
35.37
30.23
26.49
23.79
21.25
17.87
12.70
5.18
-4.63
-15.94
-27.18
-36.18
-40.63
-38.75
-29.97
-15.21
3.26
22.48
39.66
52.89
61.45
65.67
66.43
64.70
61.33
57.03
52.48
48.41
45.51
44.19
44.41
45.68
47.25
48.39
48.76
48.43
47.83
47.38
47.22
47.08
46.42
44.63
41.38
36.85
31.60
26.39
21.75
17.83
14.28
10.59
6.34
1.50
-3.56
-8.28
-12.21
-15.20
-17.54
-19.80
-22.65
-26.72
-32.35
-39.36
-46.85
-53.18
-56.29
-54.38
-46.62
-33.61
-17.29
-0.30
14.92
26.83
35.00
39.87
42.20
42.66
41.70
39.65
36.94
34.18
32.01
30.87
30.87
31.68
32.78
33.64
33.93
33.53
32.55
31.15
29.47
27.55
25.33
22.77
19.89
16.85
13.94
11.44
9.52
8.11
6.96
5.67
3.94
1.60
-1.24
-4.36
-7.42
-10.16
-12.39
-14.03
-15.14
-16.00
-17.11
-19.02
-22.07
-26.12
-30.40
-33.66
-34.60
-32.43
-27.18
-19.75
-11.44
-3.55
3.12
8.31
12.10
14.64
15.95
16.03
14.93
13.02
10.91
9.26
8.53
8.77
9.65
10.67
11.44
11.84
12.05
12.33
12.84
13.50
14.03
14.14
13.69
12.79
11.66
10.60
9.72
8.93
7.97
6.57
4.55
2.04
-0.64
-3.02
-4.74
-5.63
-5.84
-5.73
-5.69
-6.04
-6.97
-8.58
-10.89
-13.75
-16.81
-19.45
-20.88
-20.47
-17.95
-13.67
-8.39
-3.05
1.64
5.40
8.31
10.55
12.21
13.15
13.15
12.16
10.41
8.40
6.67
5.59
5.23
5.36
5.67
5.95
6.18
6.46
6.90
7.49
8.08
8.45
8.46
8.06
7.38
6.61
5.88
5.23
4.56
3.70
2.53
1.09
-0.46
-1.86
-2.83
-3.24
-3.11
-2.68
-2.25
-2.16
-2.67
-3.93
-5.89
-8.34
-10.89
-13.06
-14.41
-14.66
-13.83
-12.12
-9.98
-7.80
-5.90
-4.41
-3.35
-2.62
-2.17
-2.01
-2.20
-2.78
-3.72
-4.90
-6.04
-6.84
-7.09
-6.71
-5.89
-4.90
-4.02
-3.41
-3.05
-2.86
-2.75
-2.73
-2.92
-3.47
-4.51
-6.03
-7.91
-9.92
-11.76
-13.15
-13.93
-14.10
-13.85
-13.54
-13.64
-14.58
-16.63
-19.83
-23.87
-28.11
-31.65
-33.51
-32.95
-29.72
-24.21
-17.32
-10.20
-3.87
1.12
4.63
6.91
8.21
8.75
8.58
7.73
6.38
4.89
3.70
3.15
3.34
4.05
4.91
5.51
5.59
5.08
4.08
2.82
1.50
0.31
-0.72
-1.72
-2.95
-4.71
-7.23
-10.53
-14.40
-18.39
-22.10
-25.21
-27.70
-29.77
-31.78
-34.10
-37.15
-41.24
-46.52
-52.75
-59.09
-64.10
-66.08
-63.62
-56.21
-44.51
-30.19
-15.33
-1.75
9.37
17.65
23.27
26.62
28.18
28.46
28.05
27.56
27.52
28.20
29.52
31.12
32.56
33.50
33.85
33.73
33.34
32.80
32.07
30.99
29.40
27.22
24.46
21.28
17.83
14.24
10.58
6.81
2.90
-1.14
-5.20
-9.05
-12.43
-15.12
-17.17
-18.84
-20.59
-22.98
-26.46
-31.34
-37.60
-44.82
-52.02
-57.62
-59.72
-56.66
-47.72
-33.55
-16.18
1.68
17.49
29.70
37.99
42.96
45.59
46.66
46.63
45.72
44.18
42.44
41.05
40.40
40.59
41.35
42.13
42.38
41.72
40.15
38.02
35.84
34.03
32.79
31.97
31.16
29.95
28.05
25.44
22.29
18.93
15.61
12.53
9.74
7.22
4.95
2.88
0.98
-0.84
-2.74
-4.85
-7.27
-9.96
-12.74
-15.33
-17.47
-19.08
-20.40
-21.97
-24.47
-28.36
-33.58
-39.29
-44.01
-46.04
-44.13
-37.99
-28.44
-17.17
-6.08
3.37
10.53
15.53
18.91
21.15
22.46
22.86
22.34
21.10
19.55
18.20
17.46
17.40
17.88
18.53
19.05
19.26
19.17
18.89
18.61
18.42
18.31
18.18
17.89
17.33
16.49
15.44
14.20
12.76
11.04
9.00
6.68
4.28
2.13
0.50
-0.50
-1.00
-1.30
-1.76
-2.59
-3.83
-5.40
-7.13
-8.88
-10.54
-12.01
-13.25
-14.39
-15.71
-17.65
-20.57
-24.48
-28.82
-32.54
-34.41
-33.58
-29.91
-24.04
-17.11
-10.26
-4.24
0.66
4.50
7.39
9.40
10.49
10.71
10.29
9.63
9.15
9.08
9.41
9.88
10.26
10.42
10.39
10.31
10.32
10.45
10.68
10.95
11.17
11.26
11.11
10.58
9.54
8.07
6.35
4.75
3.58
2.98
2.79
2.73
2.47
1.81
0.75
-0.62
-2.13
-3.64
-5.00
-6.10
-6.82
-7.17
-7.31
-7.58
-8.42
-10.25
-13.31
-17.44
-22.13
-26.60
-29.96
-31.44
-30.58
-27.42
-22.40
-16.25
-9.82
-3.80
1.29
5.22
7.93
9.53
10.19
10.17
9.70
9.05
8.44
8.01
7.84
7.88
8.02
8.11
8.00
7.67
7.17
6.63
6.20
5.96
5.85
5.75
5.54
5.08
4.37
3.43
2.38
1.34
0.48
-0.11
-0.41
-0.56
-0.82
-1.49
-2.79
-4.68
-6.90
-9.04
-10.67
-11.58
-11.78
-11.65
-11.73
-12.63
-14.79
-18.25
-22.57
-26.91
-30.19
-31.50
-30.38
-26.94
-21.82
-15.87
-9.90
-4.41
0.42
4.59
8.12
10.88
12.74
13.61
13.57
12.96
12.22
11.73
11.62
11.79
11.98
11.92
11.53
10.95
10.50
10.42
10.79
11.44
11.99
12.05
11.41
10.13
8.48
6.80
5.38
4.32
3.56
2.94
2.28
1.40
0.20
-1.36
-3.19
-5.10
-6.77
-7.83
-8.06
-7.46
-6.40
-5.53
-5.67
-7.50
-11.30
-16.71
-22.72
-27.94
-30.99
-31.05
-28.03
-22.65
-16.10
-9.57
-3.93
0.45
3.58
5.75
7.25
8.36
9.27
10.10
10.89
11.67
12.39
13.00
13.45
13.63
13.51
13.09
12.44
11.78
11.33
11.26
11.57
12.06
12.40
12.27
11.51
10.15
8.43
6.61
4.97
3.66
2.71
1.99
1.32
0.49
-0.65
-2.13
-3.80
-5.42
-6.74
-7.54
-7.76
-7.56
-7.31
-7.52
-8.72
-11.24
-14.95
-19.23
-23.06
-25.36
-25.34
-22.87
-18.41
-12.86
-7.16
-1.94
2.50
6.21
9.25
11.61
13.12
13.67
13.31
12.34
11.23
10.39
10.00
9.96
9.96
9.72
9.12
8.28
7.39
6.65
6.12
5.74
5.42
5.08
4.69
4.25
3.74
3.12
2.43
1.75
1.23
0.93
0.79
0.59
-0.01
-1.23
-3.10
-5.34
-7.52
-9.16
-9.93
-9.86
-9.23
-8.62
-8.62
-9.74
-12.15
-15.68
-19.77
-23.63
-26.48
-27.74
-27.24
-25.16
-21.96
-18.13
-14.07
-10.05
-6.16
-2.54
0.73
3.51
5.70
7.30
8.33
8.99
9.45
9.93
10.59
11.49
12.62
13.86
15.07
16.17
17.08
17.74
18.07
17.94
17.29
16.11
14.58
12.93
11.43
10.29
9.62
9.40
9.54
9.81
9.95
9.72
8.96
7.73
6.28
4.95
4.07
3.78
4.05
4.63
5.15
5.22
4.52
2.84
0.23
-3.02
-6.42
-9.34
-11.20
-11.66
-10.69
-8.56
-5.70
-2.61
0.31
2.78
4.62
5.75
6.14
5.87
5.08
4.00
2.82
1.69
0.64
-0.30
-1.07
-1.54
-1.53
-1.04
-0.20
0.65
1.20
1.29
1.00
0.57
0.27
0.20
0.30
0.44
0.49
0.48
0.50
0.71
1.18
1.91
2.80
3.72
4.62
5.42
5.99
6.19
5.71
4.38
2.16
-0.65
-3.51
-5.84
-7.19
-7.50
-7.00
-6.15
-5.28
-4.54
-3.85
-3.08
-2.18
-1.25
-0.54
-0.30
-0.64
-1.48
-2.58
-3.62
-4.31
-4.48
-4.15
-3.47
-2.66
-1.90
-1.25
-0.65
-0.03
0.67
1.35
1.82
1.79
1.11
-0.19
-1.85
-3.44
-4.53
-4.83
-4.34
-3.27
-2.02
-1.07
-0.82
-1.51
-3.15
-5.47
-8.00
-10.16
-11.45
-11.61
-10.67
-8.89
-6.66
-4.33
-2.15
-0.25
1.28
2.32
2.77
2.58
1.82
0.72
-0.41
-1.23
-1.59
-1.48
-1.14
-0.88
-0.93
-1.34
-1.94
-2.45
-2.62
-2.39
-1.89
-1.35
-1.02
-1.00
-1.26
-1.66
-1.99
-2.07
-1.84
-1.40
-1.01
-1.00
-1.66
-3.05
-4.98
-7.05
-8.90
-10.32
-11.26
-11.80
-11.92
-11.50
-10.38
-8.52
-6.07
-3.39
-0.90
1.08
2.43
3.15
3.28
2.89
2.05
0.93
-0.22
-1.13
-1.60
-1.63
-1.41
-1.20
-1.18
-1.35
-1.53
-1.45
-0.98
-0.13
0.85
1.63
1.96
1.78
1.25
0.72
0.49
0.67
1.17
1.65
1.73
1.06
-0.53
-3.02
-6.22
-9.75
-13.18
-16.03
-17.93
-18.65
-18.12
-16.50
-14.02
-10.96
-7.63
-4.36
-1.42
0.94
2.54
3.37
3.50
3.19
2.73
2.40
2.35
2.56
2.85
2.97
2.73
2.11
1.25
0.41
-0.22
-0.58
-0.78
-1.03
-1.58
-2.53
-3.81
-5.23
-6.52
-7.41
-7.72
-7.43
-6.68
-5.80
-5.27
-5.54
-6.94
-9.49
-12.81
-16.24
-18.91
-20.09
-19.34
-16.71
-12.69
-8.00
-3.42
0.51
3.55
5.73
7.21
8.16
8.73
8.97
8.95
8.71
8.34
7.96
7.67
7.58
7.74
8.16
8.74
9.37
9.84
10.00
9.80
9.30
8.65
8.02
7.49
6.98
6.36
5.43
4.10
2.42
0.55
-1.26
-2.79
-3.82
-4.30
-4.24
-3.85
-3.50
-3.68
-4.83
-7.21
-10.69
-14.70
-18.34
-20.67
-20.99
-19.11
-15.36
-10.50
-5.36
-0.67
3.17
6.04
8.03
9.33
10.03
10.23
10.03
9.62
9.16
8.81
8.60
8.41
8.12
7.70
7.23
6.93
6.93
7.25
7.71
8.00
7.91
7.34
6.45
5.51
4.86
4.71
5.05
5.63
6.08
6.02
5.28
4.00
2.58
1.50
1.08
1.32
1.84
2.02
1.25
-0.81
-4.15
-8.31
-12.58
-16.16
-18.34
-18.67
-17.03
-13.69
-9.15
-4.13
0.74
4.96
8.23
10.44
11.62
11.84
11.27
10.16
8.86
7.69
6.92
6.61
6.63
6.76
6.83
6.79
6.75
6.85
7.09
7.39
7.51
7.24
6.48
5.27
3.75
2.11
0.53
-0.84
-1.91
-2.65
-3.11
-3.36
-3.52
-3.63
-3.68
-3.59
-3.28
-2.74
-2.16
-1.85
-2.25
-3.70
-6.26
-9.62
-13.11
-15.93
-17.42
-17.26
-15.57
-12.80
-9.53
-6.21
-3.13
-0.41
1.89
3.75
5.10
5.90
6.22
6.16
5.84
5.38
4.86
4.40
4.12
4.15
4.59
5.41
6.42
7.34
7.88
7.90
7.47
6.88
6.43
6.31
6.50
6.73
6.67
6.11
5.03
3.63
2.21
1.02
0.18
-0.24
-0.28
-0.01
0.37
0.54
0.05
-1.47
-4.14
-7.64
-11.33
-14.43
-16.30
-16.63
-15.48
-13.17
-10.13
-6.77
-3.37
-0.16
2.67
4.98
6.73
7.86
8.45
8.58
8.37
7.98
7.51
7.10
6.76
6.48
6.19
5.82
5.33
4.76
4.18
3.73
3.51
3.55
3.81
4.11
4.25
4.03
3.33
2.24
0.97
-0.17
-0.95
-1.28
-1.22
-0.94
-0.66
-0.60
-0.98
-1.99
-3.70
-6.04
-8.73
-11.32
-13.29
-14.19
-13.82
-12.23
-9.76
-6.80
-3.78
-1.02
1.27
2.96
3.97
4.27
3.89
2.93
1.65
0.34
-0.70
-1.29
-1.42
-1.26
-1.02
-0.89
-0.98
-1.19
-1.40
-1.46
-1.29
-0.96
-0.61
-0.42
-0.51
-0.95
-1.66
-2.48
-3.27
-3.90
-4.30
-4.45
-4.40
-4.26
-4.30
-4.94
-6.59
-9.47
-13.41
-17.71
-21.34
-23.31
-22.99
-20.41
-16.20
-11.30
-6.61
-2.67
0.38
2.66
4.29
5.34
5.74
5.48
4.66
3.48
2.28
1.33
0.80
0.78
1.25
2.13
3.23
4.30
5.03
5.18
4.68
3.69
2.47
1.29
0.19
-0.91
-2.24
-3.93
-5.95
-7.99
-9.75
-11.04
-11.92
-12.68
-13.67
-15.21
-17.45
-20.50
-24.32
-28.71
-33.10
-36.56
-37.91
-36.14
-30.85
-22.55
-12.53
-2.39
6.54
13.58
18.69
22.26
24.60
25.82
25.92
24.96
23.25
21.36
19.89
19.19
19.26
19.76
20.24
20.35
19.97
19.16
18.15
17.08
16.07
15.16
14.32
13.43
12.32
10.74
8.49
5.55
2.12
-1.41
-4.61
-7.16
-9.01
-10.31
-11.34
-12.40
-13.79
-15.74
-18.51
-22.17
-26.53
-30.98
-34.50
-35.90
-34.22
-29.13
-21.05
-11.14
-0.88
8.32
15.58
20.65
23.77
25.44
26.01
25.71
24.62
22.93
20.96
19.19
18.03
17.61
17.78
18.08
18.12
17.71
16.97
16.21
15.65
15.34
15.07
14.55
13.55
12.04
10.16
8.16
6.26
4.50
2.86
1.21
-0.49
-2.22
-3.87
-5.29
-6.45
-7.37
-8.21
-9.21
-10.68
-12.96
-16.27
-20.47
-24.97
-28.70
-30.41
-29.13
-24.61
-17.57
-9.36
-1.52
4.85
9.36
12.24
13.98
14.98
15.41
15.29
14.72
13.89
13.13
12.69
12.67
13.00
13.47
13.84
13.91
13.65
13.13
12.57
12.23
12.27
12.61
12.91
12.70
11.65
9.76
7.38
5.03
3.12
1.71
0.55
-0.75
-2.35
-4.09
-5.54
-6.24
-5.96
-4.85
-3.46
-2.46
-2.44
-3.67
-6.08
-9.26
-12.65
-15.58
-17.55
-18.12
-17.15
-14.69
-11.09
-6.84
-2.50
1.45
4.67
7.00
8.46
9.16
9.27
9.01
8.55
8.05
7.58
7.18
6.86
6.64
6.56
6.68
7.03
7.58
8.26
8.89
9.33
9.43
9.15
8.54
7.74
6.88
6.03
5.23
4.39
3.48
2.49
1.49
0.55
-0.22
-0.81
-1.21
-1.42
-1.45
-1.33
-1.23
-1.43
-2.25
-3.87
-6.18
-8.79
-11.12
-12.56
-12.76
-11.63
-9.41
-6.50
-3.37
-0.39
2.15
4.07
5.28
5.74
5.45
4.55
3.25
1.85
0.68
0.00
-0.04
0.48
1.37
2.32
3.08
3.51
3.61
3.56
3.54
3.68
3.98
4.34
4.57
4.52
4.15
3.53
2.79
2.06
1.42
0.90
0.53
0.38
0.51
0.86
1.22
1.22
0.47
-1.16
-3.47
-5.95
-8.01
-9.22
-9.45
-8.88
-7.82
-6.56
-5.24
-3.88
-2.45
-1.02
0.23
1.02
1.16
0.62
-0.37
-1.41
-2.11
-2.24
-1.85
-1.15
-0.39
0.28
0.92
1.64
2.48
3.29
3.78
3.68
2.92
1.69
0.33
-0.81
-1.62
-2.16
-2.56
-2.88
-3.05
-2.97
-2.64
-2.31
-2.32
-3.03
-4.51
-6.48
-8.44
-9.90
-10.57
-10.45
-9.80
-8.88
-7.86
-6.78
-5.64
-4.50
-3.50
-2.86
-2.73
-3.13
-3.90
-4.81
-5.52
-5.78
-5.46
-4.58
-3.33
-2.02
-0.90
-0.14
0.27
0.44
0.55
0.66
0.69
0.46
-0.23
-1.38
-2.81
-4.19
-5.16
-5.54
-5.36
-4.80
-4.13
-3.63
-3.56
-4.23
-5.88
-8.64
-12.34
-16.49
-20.30
-22.88
-23.59
-22.19
-18.97
-14.60
-9.90
-5.57
-1.99
0.74
2.79
4.37
5.65
6.67
7.38
7.72
7.70
7.48
7.25
7.20
7.38
7.75
8.11
8.22
7.91
7.15
6.12
5.09
4.38
4.13
4.20
4.20
3.65
2.24
-0.03
-2.79
-5.51
-7.68
-9.07
-9.74
-9.97
-10.11
-10.54
-11.55
-13.43
-16.32
-20.07
-24.10
-27.47
-29.15
-28.35
-24.86
-19.18
-12.29
-5.31
0.90
5.90
9.63
12.31
14.15
15.25
15.62
15.32
14.51
13.54
12.81
12.63
13.00
13.65
14.17
14.24
13.79
13.04
12.37
12.04
12.03
12.08
11.83
11.01
9.63
7.93
6.21
4.71
3.47
2.32
0.99
-0.72
-2.84
-5.16
-7.35
-9.06
-10.13
-10.56
-10.66
-10.88
-11.72
-13.55
-16.56
-20.56
-25.02
-29.08
-31.73
-32.11
-29.75
-24.75
-17.84
-10.08
-2.57
3.92
9.10
13.05
16.02
18.19
19.59
20.11
19.75
18.76
17.63
16.88
16.82
17.33
18.00
18.35
18.04
17.14
15.96
14.90
14.23
13.95
13.88
13.73
13.29
12.50
11.44
10.25
9.10
8.09
7.25
6.45
5.44
4.00
1.97
-0.54
-3.25
-5.70
-7.55
-8.57
-8.86
-8.69
-8.54
-8.90
-10.19
-12.70
-16.46
-21.16
-26.08
-30.27
-32.65
-32.46
-29.45
-23.99
-16.95
-9.45
-2.46
3.38
7.80
10.90
12.93
14.18
14.85
15.05
14.88
14.51
14.19
14.17
14.56
15.23
15.85
16.03
15.51
14.34
12.87
11.58
10.83
10.70
10.95
11.22
11.16
10.59
9.58
8.31
6.97
5.71
4.59
3.62
2.75
1.97
1.27
0.57
-0.24
-1.29
-2.61
-4.03
-5.23
-5.91
-5.93
-5.49
-5.07
-5.32
-6.69
-9.27
-12.64
-16.02
-18.58
-19.64
-18.98
-16.73
-13.28
-9.11
-4.67
-0.32
3.61
6.87
9.27
10.72
11.30
11.22
10.73
10.09
9.46
8.92
8.42
7.93
7.37
6.73
6.06
5.44
5.02
4.88
5.10
5.59
6.22
6.83
7.25
7.44
7.45
7.34
7.18
7.01
6.78
6.50
6.21
6.02
5.99
6.04
6.02
5.72
5.04
4.09
3.13
2.39
2.04
1.90
1.64
0.80
-0.90
-3.52
-6.79
-10.23
-13.25
-15.31
-16.09
-15.60
-14.07
-11.86
-9.26
-6.47
-3.56
-0.68
1.92
3.89
4.91
4.96
4.28
3.40
2.85
2.91
3.54
4.35
4.90
4.91
4.42
3.72
3.19
3.06
3.34
3.85
4.29
4.52
4.49
4.32
4.09
3.82
3.43
2.83
1.99
0.95
-0.13
-1.09
-1.80
-2.21
-2.34
-2.27
-2.06
-1.74
-1.27
-0.55
0.45
1.58
2.54
2.91
2.34
0.72
-1.66
-4.24
-6.34
-7.50
-7.61
-6.87
-5.65
-4.28
-2.90
-1.57
-0.30
0.81
1.54
1.72
1.30
0.46
-0.46
-1.12
-1.34
-1.20
-0.90
-0.72
-0.74
-0.85
-0.79
-0.33
0.55
1.64
2.58
3.12
3.30
3.38
3.73
4.48
5.46
6.21
6.28
5.52
4.25
2.99
2.18
1.88
1.74
1.31
0.43
-0.58
-1.07
-0.48
1.21
3.33
4.85
4.81
2.84
-0.68
-4.90
-8.87
-11.89
-13.73
-14.41
-14.10
-12.88
-10.83
-8.05
-4.78
-1.43
1.47
3.42
4.19
3.75
2.44
0.77
-0.71
-1.66
-1.99
-1.86
-1.55
-1.31
-1.23
-1.15
-0.90
-0.36
0.41
1.17
1.65
1.73
1.46
1.04
0.75
0.74
0.97
1.26
1.38
1.24
0.90
0.55
0.34
0.42
0.80
1.51
2.51
3.69
4.78
5.36
5.06
3.59
1.08
-2.04
-5.09
-7.47
-8.79
-9.02
-8.36
-7.07
-5.44
-3.66
-1.91
-0.37
0.79
1.42
1.44
0.85
-0.25
-1.65
-3.05
-4.12
-4.61
-4.38
-3.52
-2.29
-1.07
-0.21
0.12
-0.02
-0.39
-0.67
-0.59
-0.10
0.64
1.32
1.61
1.38
0.70
-0.23
-1.15
-1.91
-2.45
-2.69
-2.43
-1.57
-0.10
1.62
2.98
3.30
2.15
-0.35
-3.60
-6.72
-8.98
-10.00
-9.86
-8.92
-7.57
-6.08
-4.53
-2.94
-1.36
0.06
1.08
1.59
1.58
1.19
0.64
0.13
-0.19
-0.32
-0.29
-0.17
0.00
0.22
0.48
0.78
1.11
1.41
1.63
1.75
1.77
1.70
1.58
1.46
1.36
1.28
1.20
1.07
0.92
0.71
0.55
0.48
0.58
0.86
1.17
1.17
0.51
-1.04
-3.50
-6.53
-9.55
-11.97
-13.32
-13.49
-12.64
-11.09
-9.20
-7.20
-5.23
-3.35
-1.65
-0.29
0.57
0.84
0.55
-0.09
-0.79
-1.26
-1.37
-1.14
-0.74
-0.33
-0.02
0.19
0.37
0.61
0.96
1.41
1.89
2.30
2.53
2.52
2.21
1.58
0.67
-0.47
-1.64
-2.69
-3.40
-3.63
-3.37
-2.68
-1.83
-1.17
-1.13
-2.05
-4.10
-7.14
-10.75
-14.28
-17.05
-18.59
-18.70
-17.61
-15.74
-13.55
-11.35
-9.23
-7.15
-4.99
-2.77
-0.64
1.20
2.56
3.42
3.91
4.22
4.52
4.88
5.24
5.55
5.78
5.93
6.01
6.03
5.91
5.65
5.25
4.77
4.31
3.89
3.51
3.05
2.43
1.66
0.84
0.08
-0.53
-0.99
-1.37
-1.81
-2.36
-3.11
-4.29
-6.11
-8.80
-12.42
-16.71
-21.03
-24.57
-26.55
-26.52
-24.53
-21.02
-16.66
-12.05
-7.60
-3.52
0.10
3.13
5.49
7.03
7.79
7.94
7.83
7.83
8.12
8.72
9.42
10.00
10.36
10.56
10.70
10.87
10.99
10.83
10.18
8.94
7.25
5.39
3.69
2.31
1.23
0.24
-0.88
-2.21
-3.68
-4.98
-5.82
-5.99
-5.57
-4.99
-4.88
-5.91
-8.48
-12.54
-17.51
-22.46
-26.29
-28.13
-27.52
-24.47
-19.53
-13.51
-7.31
-1.65
3.01
6.53
9.02
10.66
11.69
12.29
12.62
12.81
13.02
13.32
13.73
14.16
14.49
14.58
14.39
13.97
13.41
12.79
12.09
11.32
10.42
9.35
8.16
6.87
5.54
4.15
2.72
1.23
-0.37
-2.06
-3.80
-5.54
-7.19
-8.69
-9.94
-10.90
-11.69
-12.60
-14.06
-16.53
-20.09
-24.27
-28.04
-30.11
-29.43
-25.67
-19.41
-11.88
-4.46
1.86
6.72
10.30
12.87
14.52
15.16
14.71
13.45
12.03
11.29
11.81
13.64
16.19
18.64
20.30
20.92
20.76
20.28
19.89
19.61
19.21
18.38
16.93
14.94
12.66
10.37
8.29
6.49
4.90
3.41
1.93
0.33
-1.42
-3.26
-5.04
-6.50
-7.37
-7.52
-7.15
-6.76
-7.01
-8.54
-11.66
-16.25
-21.65
-26.87
-30.67
-31.98
-30.25
-25.60
-18.87
-11.34
-4.21
1.73
6.24
9.59
12.15
14.15
15.61
16.46
16.72
16.61
16.52
16.76
17.42
18.30
19.02
19.30
19.04
18.41
17.71
17.18
16.86
16.59
16.11
15.15
13.65
11.70
9.58
7.56
5.87
4.73
4.16
4.05
4.16
4.18
3.84
3.01
1.81
0.47
-0.79
-1.80
-2.51
-2.95
-3.23
-3.55
-4.25
-5.70
-8.26
-11.88
-16.09
-20.01
-22.65
-23.22
-21.45
-17.63
-12.44
-6.71
-1.20
3.51
7.09
9.44
10.61
10.80
10.27
9.33
8.30
7.46
7.00
6.93
7.10
7.18
6.97
6.38
5.64
5.11
5.10
5.61
6.34
6.89
6.88
6.25
5.19
4.03
3.06
2.38
1.94
1.57
1.18
0.65
0.01
-0.80
-1.74
-2.72
-3.63
-4.30
-4.60
-4.62
-4.68
-5.24
-6.73
-9.32
-12.71
-16.18
-18.81
-19.85
-18.97
-16.39
-12.71
-8.62
-4.57
-0.74
2.88
6.23
9.12
11.16
12.03
11.73
10.60
9.27
8.30
7.93
8.06
8.33
8.39
8.16
7.78
7.55
7.66
8.11
8.60
8.76
8.36
7.37
6.03
4.65
3.48
2.55
1.72
0.73
-0.64
-2.47
-4.62
-6.78
-8.60
-9.75
-10.01
-9.44
-8.31
-7.11
-6.41
-6.79
-8.58
-11.82
-16.10
-20.61
-24.35
-26.40
-26.24
-23.90
-19.85
-14.78
-9.39
-4.21
0.45
4.37
7.41
9.53
10.78
11.33
11.43
11.28
11.06
10.83
10.63
10.48
10.40
10.36
10.38
10.49
10.71
11.01
11.27
11.26
10.74
9.63
8.13
6.64
5.64
5.34
5.61
6.01
5.98
5.09
3.29
0.83
-1.77
-4.01
-5.52
-6.22
-6.28
-6.07
-6.11
-6.88
-8.77
-11.84
-15.87
-20.27
-24.23
-26.95
-27.83
-26.60
-23.42
-18.72
-13.09
-7.08
-1.13
4.34
8.99
12.47
14.55
15.19
14.66
13.45
12.10
11.04
10.39
10.04
9.75
9.34
8.75
8.09
7.56
7.25
7.19
7.32
7.53
7.72
7.77
7.60
7.19
6.60
5.93
5.26
4.61
3.85
2.83
1.44
-0.24
-1.95
-3.40
-4.31
-4.56
-4.24
-3.59
-2.87
-2.47
-2.76
-4.07
-6.55
-10.05
-14.05
-17.79
-20.42
-21.26
-19.99
-16.77
-12.14
-6.86
-1.76
2.51
5.59
7.39
8.11
8.08
7.69
7.26
6.96
6.83
6.74
6.54
6.11
5.53
5.00
4.84
5.27
6.30
7.70
9.11
10.18
10.64
10.47
9.72
8.52
7.06
5.56
4.31
3.60
3.58
4.15
4.96
5.49
5.34
4.42
2.97
1.44
0.25
-0.41
-0.58
-0.58
-0.82
-1.64
-3.26
-5.70
-8.78
-12.11
-15.22
-17.62
-18.90
-18.86
-17.50
-15.04
-11.84
-8.37
-5.05
-2.27
-0.21
1.11
1.87
2.29
2.59
2.97
3.48
4.13
4.83
5.42
5.76
5.79
5.63
5.54
5.81
6.60
7.79
9.02
9.88
10.06
9.51
8.44
7.22
6.15
5.37
4.86
4.44
3.97
3.36
2.65
2.01
1.58
1.48
1.74
2.31
3.06
3.84
4.44
4.58
4.01
2.58
0.33
-2.47
-5.41
-8.03
-9.99
-11.14
-11.41
-10.85
-9.56
-7.73
-5.63
-3.58
-1.91
-0.77
-0.18
-0.03
-0.17
-0.45
-0.76
-0.98
-1.01
-0.78
-0.28
0.42
1.27
2.24
3.32
4.48
5.60
6.45
6.84
6.69
6.21
5.70
5.45
5.51
5.73
5.78
5.41
4.56
3.40
2.20
1.25
0.78
0.91
1.65
2.83
4.12
5.07
5.21
4.27
2.28
-0.40
-3.26
-5.80
-7.68
-8.84
-9.33
-9.31
-8.90
-8.17
-7.12
-5.76
-4.17
-2.55
-1.16
-0.26
-0.03
-0.41
-1.11
-1.79
-2.16
-2.12
-1.76
-1.29
-0.90
-0.65
-0.44
-0.12
0.49
1.40
2.55
3.69
4.58
4.99
4.77
4.00
2.91
1.88
1.29
1.40
2.20
3.41
4.54
5.07
4.66
3.26
1.06
-1.55
-4.22
-6.64
-8.63
-10.00
-10.63
-10.38
-9.27
-7.51
-5.47
-3.55
-2.05
-1.08
-0.63
-0.58
-0.90
-1.56
-2.46
-3.40
-4.06
-4.17
-3.65
-2.66
-1.53
-0.64
-0.18
-0.12
-0.25
-0.29
-0.04
0.55
1.35
2.21
2.92
3.40
3.61
3.59
3.46
3.32
3.33
3.58
4.13
4.85
5.36
5.20
3.93
1.42
-2.16
-6.22
-10.08
-13.11
-14.94
-15.52
-15.03
-13.73
-11.90
-9.82
-7.70
-5.78
-4.18
-2.97
-2.13
-1.60
-1.32
-1.23
-1.25
-1.25
-1.11
-0.75
-0.24
0.28
0.62
0.65
0.40
0.06
-0.11
0.09
0.74
1.74
2.86
3.82
4.39
4.43
3.98
3.20
2.38
1.86
1.80
2.24
2.97
3.58
3.58
2.63
0.60
-2.28
-5.50
-8.46
-10.66
-11.87
-12.10
-11.54
-10.47
-9.04
-7.35
-5.44
-3.39
-1.36
0.40
1.62
2.05
1.67
0.68
-0.53
-1.49
-1.84
-1.45
-0.46
0.80
1.97
2.83
3.31
3.52
3.64
3.79
4.06
4.47
4.96
5.43
5.72
5.65
5.09
4.10
2.81
1.48
0.35
-0.39
-0.77
-0.90
-1.02
-1.40
-2.32
-4.03
-6.55
-9.71
-13.02
-15.84
-17.56
-17.81
-16.61
-14.27
-11.35
-8.33
-5.53
-3.06
-0.96
0.78
2.15
3.15
3.82
4.22
4.41
4.41
4.27
4.10
4.03
4.21
4.67
5.33
5.98
6.47
6.71
6.75
6.75
6.82
6.95
7.05
6.98
6.64
5.97
4.99
3.73
2.26
0.69
-0.75
-1.79
-2.25
-2.11
-1.60
-1.16
-1.32
-2.43
-4.57
-7.50
-10.69
-13.52
-15.40
-15.99
-15.21
-13.27
-10.56
-7.54
-4.60
-1.97
0.25
2.11
3.66
4.91
5.79
6.23
6.18
5.72
5.12
4.62
4.46
4.65
5.09
5.57
5.93
6.09
6.10
6.02
5.89
5.72
5.50
5.25
5.03
4.91
4.91
5.04
5.22
5.32
5.21
4.72
3.80
2.52
1.10
-0.14
-1.00
-1.51
-2.02
-3.07
-5.07
-8.09
-11.69
-15.12
-17.59
-18.66
-18.31
-16.88
-14.77
-12.26
-9.44
-6.32
-3.02
0.17
2.85
4.70
5.63
5.89
5.83
5.78
5.91
6.18
6.46
6.65
6.68
6.57
6.35
6.07
5.77
5.59
5.63
5.91
6.31
6.58
6.45
5.78
4.63
3.23
1.88
0.78
-0.05
-0.68
-1.25
-1.77
-2.12
-2.20
-2.00
-1.71
-1.83
-2.90
-5.32
-9.08
-13.60
-17.90
-20.90
-21.84
-20.55
-17.48
-13.44
-9.22
-5.31
-1.85
1.20
3.83
5.94
7.27
7.68
7.19
6.10
4.86
3.85
3.35
3.31
3.65
4.10
4.51
4.73
4.71
4.41
3.79
2.91
1.79
0.54
-0.76
-2.13
-3.58
-5.15
-6.83
-8.52
-10.14
-11.62
-12.92
-13.98
-14.76
-15.24
-15.52
-15.93
-17.02
-19.28
-22.85
-27.28
-31.56
-34.35
-34.55
-31.64
-25.88
-18.18
-9.68
-1.48
5.62
11.23
15.21
17.62
18.69
18.68
17.96
16.96
16.08
15.63
15.75
16.34
17.07
17.61
17.62
17.05
16.06
14.98
14.13
13.61
13.33
12.99
12.35
11.35
10.08
8.75
7.42
6.02
4.38
2.36
-0.01
-2.48
-4.76
-6.68
-8.25
-9.68
-11.28
-13.37
-16.28
-20.29
-25.44
-31.42
-37.37
-41.93
-43.73
-41.77
-35.91
-27.02
-16.55
-6.09
3.14
10.54
15.98
19.57
21.46
21.82
20.94
19.33
17.71
16.74
16.80
17.86
19.50
21.14
22.27
22.67
22.39
21.64
20.64
19.47
18.04
16.20
13.91
11.32
8.73
6.57
5.03
3.96
2.91
1.38
-0.99
-4.12
-7.55
-10.70
-13.12
-14.67
-15.56
-16.24
-17.24
-19.12
-22.33
-27.01
-32.82
-38.76
-43.30
-44.82
-42.17
-35.26
-25.18
-13.75
-2.96
5.80
12.06
16.07
18.50
19.91
20.63
20.75
20.40
19.83
19.43
19.59
20.47
21.92
23.57
24.93
25.73
25.93
25.75
25.52
25.45
25.53
25.47
24.85
23.32
20.85
17.79
14.71
12.18
10.45
9.38
8.42
6.95
4.56
1.27
-2.51
-6.19
-9.24
-11.43
-12.84
-13.78
-14.66
-15.98
-18.20
-21.76
-26.71
-32.55
-38.18
-42.01
-42.59
-39.13
-31.97
-22.36
-12.03
-2.49
5.42
11.55
16.11
19.34
21.21
21.61
20.64
18.77
16.80
15.55
15.53
16.66
18.44
20.17
21.27
21.55
21.17
20.45
19.72
19.11
18.57
17.91
16.90
15.45
13.56
11.40
9.24
7.35
5.92
4.94
4.20
3.30
1.91
-0.17
-2.85
-5.78
-8.53
-10.73
-12.23
-13.12
-13.70
-14.33
-15.38
-17.23
-20.18
-24.32
-29.32
-34.36
-38.22
-39.60
-37.59
-32.03
-23.65
-13.78
-3.96
4.56
11.07
15.46
17.96
19.01
18.99
18.23
17.05
15.77
14.69
13.96
13.60
13.45
13.33
13.10
12.77
12.41
12.08
11.73
11.21
10.35
9.04
7.33
5.35
3.32
1.40
-0.29
-1.77
-3.07
-4.31
-5.60
-7.08
-8.76
-10.55
-12.20
-13.40
-13.95
-13.90
-13.66
-13.92
-15.39
-18.55
-23.28
-28.71
-33.34
-35.48
-33.78
-27.77
-18.06
-6.12
6.15
17.09
25.62
31.39
34.61
35.77
35.35
33.70
31.16
28.06
24.83
21.95
19.80
18.56
18.11
18.03
17.75
16.86
15.24
13.19
11.22
9.84
9.19
9.04
8.80
7.91
6.09
3.42
0.32
-2.77
-5.51
-7.81
-9.76
-11.49
-13.12
-14.70
-16.33
-18.22
-20.63
-23.80
-27.67
-31.83
-35.49
-37.72
-37.76
-35.26
-30.39
-23.79
-16.32
-8.84
-2.03
3.72
8.18
11.26
12.94
13.25
12.35
10.57
8.48
6.64
5.56
5.38
5.84
6.46
6.67
6.17
4.98
3.42
1.87
0.53
-0.67
-2.03
-3.87
-6.35
-9.30
-12.34
-15.03
-17.06
-18.42
-19.38
-20.41
-22.02
-24.69
-28.82
-34.58
-41.74
-49.45
-56.22
-60.18
-59.68
-53.89
-43.32
-29.63
-15.10
-1.83
8.83
16.54
21.61
24.59
25.94
25.96
24.88
23.10
21.19
19.78
19.37
20.10
21.72
23.73
25.48
26.43
26.24
24.85
22.49
19.54
16.50
13.75
11.44
9.44
7.35
4.68
1.06
-3.63
-9.15
-15.03
-20.71
-25.79
-30.12
-33.81
-37.26
-41.01
-45.69
-51.93
-60.00
-69.46
-78.98
-86.40
-89.33
-85.96
-75.77
-59.86
-40.64
-20.92
-3.10
11.46
22.50
30.46
36.00
39.67
41.80
42.67
42.59
41.96
41.17
40.56
40.31
40.45
40.88
41.41
41.81
41.81
41.13
39.58
37.10
33.77
29.84
25.62
21.33
16.97
12.31
6.99
0.68
-6.67
-14.81
-23.25
-31.36
-38.66
-44.96
-50.40
-55.47
-60.98
-67.87
-76.91
-88.22
-100.71
-112.00
-118.78
-117.82
-107.31
-87.59
-61.23
-32.18
-4.36
19.42
38.03
51.67
61.13
67.20
70.39
71.14
70.11
68.24
66.60
65.95
66.50
67.85
69.21
69.84
69.36
67.86
65.79
63.68
61.80
60.05
57.95
54.87
50.32
44.25
37.11
29.65
22.64
16.51
11.08
5.72
-0.38
-7.70
-16.04
-24.63
-32.39
-38.53
-42.92
-46.23
-49.66
-54.57
-62.03
-72.43
-85.25
-98.81
-110.40
-116.69
-114.73
-102.96
-82.01
-54.73
-25.26
2.26
24.97
41.91
53.61
61.29
65.98
68.18
68.12
66.18
63.24
60.52
59.15
59.67
61.75
64.38
66.40
66.96
65.96
63.89
61.59
59.70
58.33
57.02
54.99
51.51
46.26
39.54
32.14
25.03
18.95
14.11
10.09
6.07
1.18
-5.15
-12.90
-21.53
-30.17
-37.96
-44.42
-49.57
-53.91
-58.29
-63.62
-70.72
-80.18
-91.97
-105.14
-117.58
-126.21
-127.75
-119.90
-102.35
-77.08
-47.87
-18.99
6.12
25.68
39.57
48.59
53.80
56.02
55.87
54.01
51.35
49.01
48.08
49.23
52.47
57.15
62.15
66.28
68.67
69.06
67.86
65.81
63.64
61.70
59.78
57.32
53.70
48.62
42.26
35.15
28.04
21.53
15.97
11.28
7.09
2.85
-1.91
-7.42
-13.57
-19.89
-25.76
-30.75
-34.81
-38.40
-42.38
-47.71
-55.19
-65.19
-77.41
-90.65
-102.74
-110.76
-111.73
-103.61
-86.12
-61.21
-32.50
-4.23
20.09
38.53
50.86
57.98
61.08
61.09
58.69
54.57
49.84
45.96
44.30
45.68
49.85
55.66
61.49
65.91
68.20
68.44
67.30
65.57
63.78
62.05
60.10
57.50
53.83
48.91
42.89
36.26
29.75
24.00
19.43
15.97
13.07
9.99
6.04
0.95
-5.03
-11.29
-17.06
-21.78
-25.29
-27.86
-30.06
-32.58
-36.16
-41.42
-48.69
-57.77
-67.53
-75.86
-80.05
-77.63
-67.37
-49.93
-27.84
-4.66
16.19
32.43
43.29
49.25
51.34
50.55
47.62
43.14
37.85
32.75
28.90
27.09
27.53
29.68
32.55
35.03
36.41
36.50
35.63
34.28
32.78
31.12
28.98
25.96
21.88
16.89
11.49
6.32
1.85
-1.78
-4.86
-7.96
-11.63
-16.14
-21.26
-26.40
-30.90
-34.28
-36.56
-38.19
-39.88
-42.41
-46.43
-52.27
-59.68
-67.67
-74.45
-77.81
-75.76
-67.37
-53.23
-35.43
-16.87
-0.23
12.77
21.62
26.64
28.45
27.46
23.95
18.37
11.72
5.57
1.75
1.68
5.84
13.43
22.70
31.47
37.89
41.08
41.18
39.13
36.22
33.41
31.06
28.96
26.50
23.10
18.55
13.07
7.23
1.66
-3.27
-7.52
-11.37
-15.21
-19.32
-23.87
-28.96
-34.78
-41.51
-49.03
-56.53
-62.41
-64.52
-61.04
-51.29
-36.28
-18.43
-0.72
14.31
25.34
32.21
35.54
36.08
34.34
30.66
25.55
19.96
15.10
12.14
11.64
13.37
16.33
19.19
20.90
20.97
19.70
17.81
16.06
14.75
13.61
11.92
8.93
4.32
-1.66
-8.18
-14.29
-19.36
-23.27
-26.49
-29.77
-33.91
-39.55
-46.98
-56.04
-65.79
-74.48
-79.74
-79.26
-71.66
-57.25
-38.10
-17.37
1.75
17.04
27.71
34.11
37.06
37.34
35.46
31.89
27.36
22.97
19.90
18.91
20.02
22.40
24.83
26.19
26.01
24.52
22.51
20.69
19.31
17.93
15.69
11.73
5.72
-1.99
-10.45
-18.55
-25.48
-30.98
-35.40
-39.52
-44.38
-50.94
-59.76
-70.61
-82.19
-92.14
-97.53
-95.75
-85.54
-67.57
-44.41
-19.69
3.05
21.35
34.24
41.96
45.39
45.45
42.91
38.57
33.33
28.40
24.93
23.68
24.71
27.28
30.14
32.05
32.29
30.86
28.41
25.75
23.37
21.14
18.37
14.15
7.92
-0.17
-9.29
-18.24
-26.00
-32.14
-37.01
-41.57
-47.03
-54.52
-64.64
-77.14
-90.65
-102.74
-110.30
-110.41
-101.35
-83.30
-58.58
-30.87
-4.15
18.53
35.66
47.17
53.83
56.61
56.28
53.49
49.05
44.11
40.09
38.25
39.25
42.83
47.89
52.85
56.24
57.18
55.64
52.28
48.11
43.90
39.96
36.02
31.46
25.67
18.38
9.80
0.53
-8.64
-17.03
-24.33
-30.61
-36.37
-42.31
-49.18
-57.73
-68.48
-81.43
-95.74
-109.43
-119.45
-122.43
-115.68
-98.39
-72.19
-40.75
-8.70
19.85
42.31
57.92
67.24
71.46
71.76
69.19
64.85
59.97
55.92
53.85
54.35
57.23
61.59
66.26
70.11
72.46
73.08
72.07
69.64
65.96
61.13
55.25
48.58
41.48
34.33
27.36
20.52
13.56
6.21
-1.57
-9.51
-17.14
-24.00
-29.90
-34.97
-39.73
-44.89
-51.27
-59.63
-70.40
-83.27
-96.71
-107.94
-113.39
-109.85
-95.72
-71.91
-41.74
-9.81
19.44
42.99
59.77
70.22
75.50
76.79
74.97
70.85
65.49
60.25
56.52
55.27
56.65
59.97
64.01
67.50
69.62
70.16
69.44
67.91
65.85
63.20
59.58
54.63
48.26
40.88
33.30
26.37
20.66
16.14
12.15
7.70
1.93
-5.54
-14.30
-23.42
-31.78
-38.53
-43.43
-46.97
-50.22
-54.52
-61.05
-70.43
-82.24
-94.81
-105.30
-110.39
-107.29
-94.74
-73.62
-46.84
-18.35
7.99
29.45
44.85
54.34
58.83
59.43
57.21
53.25
48.73
44.85
42.67
42.73
44.91
48.39
52.01
54.60
55.45
54.45
52.09
49.14
46.25
43.60
40.89
37.47
32.79
26.77
19.88
13.04
7.10
2.50
-1.02
-4.27
-8.19
-13.40
-19.93
-27.14
-34.11
-40.01
-44.50
-47.87
-50.87
-54.49
-59.71
-67.17
-76.94
-88.21
-99.14
-106.99
-108.76
-102.15
-86.53
-63.43
-36.17
-8.88
14.84
32.83
44.60
50.85
52.76
51.44
47.84
42.96
38.07
34.54
33.50
35.36
39.52
44.68
49.27
52.20
53.12
52.43
50.82
48.87
46.67
43.95
40.31
35.56
29.94
24.05
18.50
13.76
9.83
6.36
2.75
-1.58
-6.86
-12.91
-19.18
-25.01
-29.93
-33.90
-37.32
-40.92
-45.45
-51.47
-59.19
-68.18
-77.26
-84.47
-87.39
-83.80
-72.54
-54.15
-30.95
-6.46
15.79
33.23
44.85
50.97
52.68
51.17
47.39
42.10
36.08
30.28
25.76
23.40
23.61
26.11
30.07
34.34
37.79
39.67
39.70
38.03
35.16
31.59
27.74
23.80
19.78
15.52
10.86
5.67
-0.03
-6.08
-12.16
-17.91
-23.01
-27.33
-31.01
-34.42
-38.09
-42.61
-48.51
-56.04
-64.92
-74.09
-81.62
-85.12
-82.41
-72.42
-55.75
-34.61
-12.20
8.37
24.92
36.57
43.51
46.43
46.00
42.77
37.27
30.35
23.26
17.43
14.05
13.61
15.68
19.04
22.23
24.08
24.17
22.91
21.16
19.66
18.52
17.17
14.60
10.01
3.30
-4.76
-12.88
-19.74
-24.67
-27.84
-30.17
-32.92
-37.24
-43.81
-52.73
-63.39
-74.32
-83.35
-87.91
-85.69
-75.58
-58.18
-35.88
-12.11
9.71
27.13
39.16
45.99
48.46
47.48
43.82
38.26
31.77
25.63
21.13
19.11
19.65
21.97
24.73
26.60
26.77
25.19
22.52
19.65
17.20
15.11
12.65
8.82
2.88
-5.16
-14.49
-23.77
-31.75
-37.75
-41.96
-45.30
-49.07
-54.57
-62.70
-73.61
-86.43
-99.10
-108.59
-111.56
-105.48
-89.65
-65.71
-37.26
-8.64
16.39
35.68
48.84
56.61
60.10
60.06
56.94
51.25
43.93
36.49
30.66
27.70
27.92
30.46
33.64
35.66
35.28
32.27
27.37
21.78
16.49
11.83
7.28
1.85
-5.45
-15.08
-26.69
-39.33
-51.82
-63.22
-73.17
-81.96
-90.35
-99.33
-109.86
-122.71
-138.27
-156.22
-175.21
-192.67
-205.21
-209.51
-203.60
-187.78
-164.73
-138.67
-113.88
-93.32
-77.99
-67.16
-59.09
-51.84
-43.87
-34.02
-21.37
-5.21
14.94
39.01
66.25
95.21
123.93
150.29
172.36
188.76
198.77
202.47
200.57
194.20
184.68
173.17
160.49
147.06
132.98
118.18
102.71
86.81
71.03
55.93
42.00
29.45
18.13
7.60
-2.84
-14.04
-26.90
-42.05
-59.40
-77.62
-93.95
-104.63
-106.02
-95.96
-74.84
-45.67
-13.26
17.46
42.84
61.26
72.93
79.07
81.03
79.88
76.49
71.74
66.73
62.62
60.26
59.93
61.26
63.42
65.53
66.99
67.55
67.26
66.30
64.72
62.37
59.03
54.47
48.70
42.00
34.87
27.79
21.02
14.45
7.68
0.29
-7.93
-16.74
-25.57
-33.76
-40.85
-46.84
-52.23
-57.98
-65.25
-75.00
-87.49
-101.75
-115.31
-124.54
-125.65
-116.07
-95.54
-66.48
-33.31
-0.90
26.85
47.96
62.26
70.72
74.53
74.63
71.73
66.68
60.75
55.52
52.47
52.37
55.03
59.31
63.67
66.70
67.71
66.83
64.79
62.44
60.24
58.11
55.40
51.37
45.56
38.14
29.88
21.89
15.11
9.87
5.76
1.81
-3.01
-9.32
-16.90
-24.97
-32.45
-38.56
-43.13
-46.62
-49.92
-54.02
-59.79
-67.83
-78.23
-90.31
-102.29
-111.29
-113.98
-107.63
-91.33
-66.62
-37.20
-7.74
17.71
36.83
49.26
56.02
58.50
57.75
54.45
49.27
43.30
38.06
35.12
35.33
38.58
43.68
48.97
53.02
55.19
55.75
55.46
54.98
54.41
53.19
50.50
45.74
38.97
30.93
22.78
15.59
9.89
5.52
1.80
-2.14
-6.90
-12.64
-19.06
-25.52
-31.39
-36.22
-39.97
-42.97
-45.94
-49.77
-55.33
-63.13
-72.97
-83.58
-92.65
-97.31
-95.05
-84.70
-67.03
-44.65
-21.13
0.15
17.03
28.75
35.74
38.79
38.59
35.56
30.17
23.32
16.52
11.52
9.83
12.03
17.55
24.73
31.51
36.12
37.68
36.39
33.23
29.41
25.81
22.59
19.28
15.06
9.31
1.94
-6.51
-15.11
-22.93
-29.41
-34.56
-38.92
-43.28
-48.41
-54.88
-63.04
-72.86
-83.79
-94.44
-102.57
-105.41
-100.50
-86.66
-64.70
-37.35
-8.54
17.83
38.96
53.62
61.96
64.81
63.19
58.03
50.38
41.64
33.55
27.82
25.57
26.85
30.61
35.09
38.56
39.91
39.03
36.58
33.50
30.41
27.23
23.30
17.73
10.04
0.48
-9.94
-19.89
-28.24
-34.54
-39.14
-43.03
-47.43
-53.44
-61.79
-72.57
-85.01
-97.23
-106.36
-109.14
-102.96
-86.96
-62.63
-33.47
-3.92
22.12
42.22
55.81
63.48
66.30
65.12
60.63
53.60
45.31
37.53
32.09
30.22
31.97
36.20
40.93
44.19
44.74
42.44
38.16
33.20
28.64
24.80
21.15
16.70
10.55
2.35
-7.46
-17.85
-27.63
-35.90
-42.39
-47.50
-52.13
-57.45
-64.60
-74.48
-87.32
-102.29
-117.27
-128.85
-133.22
-127.29
-109.99
-82.87
-49.85
-15.92
14.38
38.22
54.80
64.85
69.70
70.50
67.98
62.78
55.84
48.57
42.60
39.26
39.06
41.40
44.86
47.80
48.94
47.91
45.13
41.56
38.05
34.93
31.83
27.92
22.28
14.40
4.40
-7.00
-18.70
-29.60
-38.93
-46.57
-52.97
-59.04
-65.86
-74.44
-85.42
-98.86
-113.86
-128.36
-139.15
-142.55
-135.44
-116.54
-87.08
-50.74
-12.59
22.49
51.10
71.90
85.33
92.73
95.55
95.02
92.10
87.78
83.17
79.40
77.29
77.11
78.54
80.82
83.10
84.72
85.39
85.04
83.70
81.26
77.48
72.11
65.09
56.74
47.67
38.66
30.28
22.65
15.40
7.87
-0.52
-9.90
-19.86
-29.55
-38.15
-45.23
-51.06
-56.53
-62.92
-71.54
-83.17
-97.61
-113.17
-126.72
-134.18
-131.79
-117.48
-91.95
-58.79
-23.29
9.19
34.99
52.85
63.54
68.77
70.18
68.80
65.24
60.24
54.97
50.86
49.12
50.16
53.43
57.66
61.47
63.90
64.79
64.56
63.83
62.99
61.85
59.69
55.71
49.42
41.02
31.42
21.89
13.57
6.93
1.61
-3.38
-9.18
-16.48
-25.27
-34.78
-43.93
-51.80
-58.06
-63.08
-67.74
-73.24
-80.70
-90.97
-104.12
-119.07
-133.30
-143.05
-144.25
-133.92
-111.53
-79.47
-42.48
-6.03
25.40
49.43
65.79
75.56
80.13
80.55
77.60
72.21
65.74
59.97
56.55
56.38
59.26
64.02
68.95
72.59
74.10
73.54
71.63
69.21
66.89
64.68
62.08
58.41
53.17
46.38
38.57
30.66
23.53
17.69
13.04
9.01
4.73
-0.60
-7.35
-15.35
-23.93
-32.21
-39.44
-45.31
-50.05
-54.35
-59.12
-65.20
-73.31
-83.74
-96.12
-109.15
-120.41
-126.73
-124.96
-113.17
-91.54
-62.62
-30.67
-0.26
25.05
43.54
55.27
61.36
63.12
61.58
57.48
51.66
45.32
40.04
37.29
37.98
41.97
48.10
54.64
59.90
62.86
63.43
62.28
60.34
58.31
56.34
53.99
50.57
45.54
38.90
31.24
23.52
16.68
11.23
7.03
3.38
-0.59
-5.60
-11.85
-18.92
-26.10
-32.61
-37.98
-42.18
-45.59
-48.80
-52.39
-56.85
-62.59
-69.87
-78.59
-87.90
-95.92
-99.94
-97.13
-85.70
-65.82
-39.86
-11.69
14.57
35.85
50.78
59.55
63.22
62.96
59.72
54.30
47.56
40.68
34.98
31.54
30.88
32.70
35.97
39.42
41.91
42.91
42.57
41.51
40.38
39.40
38.25
36.21
32.61
27.31
20.83
14.16
8.31
3.80
0.43
-2.52
-5.99
-10.62
-16.43
-22.86
-29.04
-34.18
-38.01
-40.77
-43.21
-46.24
-50.69
-57.03
-65.18
-74.29
-82.70
-88.14
-88.30
-81.61
-67.97
-49.02
-27.60
-6.92
10.46
23.29
31.47
35.65
36.55
34.76
30.76
25.24
19.22
13.96
10.62
9.81
11.42
14.64
18.30
21.23
22.66
22.38
20.75
18.42
15.99
13.81
11.67
9.04
5.26
-0.02
-6.65
-13.99
-21.18
-27.49
-32.59
-36.63
-40.10
-43.58
-47.61
-52.71
-59.31
-67.58
-77.11
-86.46
-93.23
-94.59
-88.32
-73.80
-52.50
-27.58
-2.81
18.62
34.93
45.79
51.84
53.90
52.61
48.44
42.05
34.56
27.53
22.60
20.85
22.37
26.18
30.61
34.00
35.32
34.51
32.36
29.92
27.88
26.18
24.02
20.36
14.46
6.40
-2.95
-12.28
-20.43
-26.82
-31.64
-35.67
-39.91
-45.28
-52.46
-61.74
-72.83
-84.55
-94.74
-100.48
-98.87
-88.17
-68.71
-43.04
-15.26
10.39
30.86
44.99
53.29
57.13
57.84
56.18
52.47
47.07
40.76
34.90
30.92
29.82
31.67
35.46
39.54
42.24
42.58
40.53
36.89
32.77
29.05
25.91
22.88
19.15
14.00
7.14
-1.15
-10.17
-19.06
-27.12
-33.96
-39.67
-44.69
-49.75
-55.70
-63.35
-73.32
-85.65
-99.43
-112.59
-121.98
-124.13
-116.44
-98.26
-71.42
-39.82
-8.23
19.24
40.21
54.21
62.20
65.63
65.77
63.48
59.45
54.47
49.55
45.78
43.89
44.07
45.92
48.59
51.14
52.85
53.33
52.56
50.70
47.91
44.28
39.86
34.70
28.96
22.80
16.34
9.60
2.47
-5.12
-13.09
-21.18
-28.98
-36.09
-42.35
-47.94
-53.35
-59.29
-66.64
-76.15
-88.05
-101.54
-114.42
-123.27
-124.37
-115.03
-94.83
-66.08
-33.12
-0.88
26.72
47.70
61.96
70.52
74.60
75.08
72.62
68.04
62.61
57.88
55.25
55.33
57.72
61.15
64.04
65.23
64.36
62.03
59.33
57.28
56.22
55.61
54.32
51.15
45.50
37.65
28.75
20.19
13.06
7.60
3.16
-1.45
-7.37
-15.10
-24.29
-33.90
-42.67
-49.70
-54.82
-58.61
-62.16
-66.74
-73.46
-83.02
-95.34
-109.25
-122.26
-130.85
-131.31
-121.08
-99.88
-70.15
-36.38
-3.57
24.31
45.30
59.47
68.09
72.61
74.03
72.93
69.83
65.64
61.68
59.32
59.43
62.03
66.23
70.69
74.11
75.76
75.66
74.32
72.46
70.56
68.64
66.31
63.00
58.33
52.32
45.43
38.48
32.28
27.39
23.94
21.60
19.76
17.75
15.06
11.46
7.02
2.03
-3.16
-8.29
-13.21
-17.91
-22.45
-26.85
-31.14
-35.37
-39.74
-44.61
-50.39
-57.12
-64.19
-70.25
-73.46
-72.17
-65.60
-54.29
-39.96
-24.94
-11.37
-0.58
6.99
11.57
13.66
13.63
11.77
8.46
4.42
0.73
-1.41
-1.18
1.59
6.27
11.67
16.45
19.69
21.15
21.22
20.62
19.87
19.12
18.03
16.14
13.17
9.31
5.11
1.14
-2.29
-5.36
-8.61
-12.66
-17.80
-23.84
-30.21
-36.19
-41.23
-45.20
-48.40
-51.43
-55.09
-60.13
-67.07
-75.97
-86.04
-95.51
-101.77
-102.03
-94.34
-78.37
-55.82
-29.95
-4.50
17.39
33.96
44.92
50.94
53.03
52.07
48.82
44.15
39.22
35.37
33.76
34.86
38.28
42.87
47.20
50.19
51.43
51.27
50.34
49.17
47.76
45.69
42.41
37.71
31.89
25.70
19.99
15.29
11.56
8.26
4.59
-0.05
-5.79
-12.25
-18.68
-24.34
-28.81
-32.17
-34.96
-38.02
-42.24
-48.27
-56.21
-65.33
-73.90
-79.44
-79.38
-71.93
-56.95
-36.20
-12.88
9.43
27.93
41.26
49.45
53.35
53.88
51.66
47.08
40.71
33.57
27.05
22.52
20.77
21.68
24.31
27.26
29.27
29.67
28.53
26.45
24.21
22.34
20.84
19.23
16.81
13.03
7.82
1.61
-4.78
-10.50
-15.05
-18.37
-20.89
-23.27
-26.24
-30.41
-36.24
-43.82
-52.72
-61.69
-68.77
-71.59
-68.15
-57.68
-41.01
-20.52
0.64
19.51
34.12
43.80
48.88
50.21
48.65
44.93
39.67
33.62
27.61
22.54
19.01
17.19
16.75
17.01
17.32
17.27
16.79
16.02
15.04
13.69
11.59
8.39
4.03
-1.15
-6.48
-11.32
-15.29
-18.45
-21.29
-24.51
-28.85
-34.77
-42.25
-50.46
-57.71
-61.81
-60.62
-52.97
-39.22
-21.34
-2.27
15.08
28.73
37.97
43.13
45.04
44.45
41.79
37.32
31.43
24.74
18.15
12.58
8.72
6.83
6.69
7.70
9.08
10.01
9.94
8.58
6.02
2.57
-1.35
-5.39
-9.31
-13.07
-16.75
-20.63
-25.16
-30.82
-37.98
-46.46
-55.29
-62.74
-66.65
-65.20
-57.65
-44.72
-28.42
-11.34
4.15
16.57
25.36
30.67
32.81
32.01
28.41
22.32
14.51
6.16
-1.30
-6.68
-9.40
-9.75
-8.71
-7.58
-7.50
-9.02
-11.98
-15.65
-19.22
-22.22
-24.74
-27.47
-31.37
-37.32
-45.83
-56.78
-69.18
-81.16
-90.14
-93.31
-88.46
-74.88
-53.82
-28.31
-2.25
20.85
38.78
50.96
57.97
60.75
59.99
55.94
48.83
39.30
28.64
18.63
10.93
6.51
5.19
5.77
6.50
5.74
2.60
-2.81
-9.62
-16.68
-23.13
-28.78
-34.11
-39.92
-47.03
-56.07
-67.37
-80.86
-95.80
-110.43
-121.82
-126.42
-121.04
-104.17
-76.87
-42.63
-6.39
27.05
54.32
73.97
86.14
91.85
92.26
88.49
81.73
73.35
64.96
57.89
52.90
49.87
48.02
46.27
43.82
40.42
36.37
32.18
28.17
24.10
19.26
12.73
3.95
-7.00
-19.25
-31.58
-42.85
-52.58
-61.06
-69.33
-78.79
-90.82
-106.22
-124.73
-144.64
-162.59
-174.08
-174.73
-161.78
-135.40
-98.98
-58.17
-18.99
14.03
38.90
56.00
66.96
73.46
76.52
76.52
73.81
69.18
63.96
59.63
57.25
57.09
58.65
61.00
63.26
64.85
65.52
65.18
63.72
60.88
56.39
50.14
42.29
33.26
23.57
13.63
3.59
-6.59
-17.02
-27.68
-38.32
-48.59
-58.12
-66.78
-74.80
-82.92
-92.27
-104.18
-119.55
-138.13
-157.93
-175.15
-184.94
-182.76
-165.98
-134.86
-92.70
-44.86
2.82
45.52
80.40
106.58
124.58
135.54
140.72
141.33
138.66
134.20
129.56
126.17
124.83
125.46
127.17
128.66
128.83
127.23
124.17
120.40
116.62
112.99
109.04
103.84
96.48
86.60
74.63
61.67
49.11
38.03
28.80
20.97
13.49
5.23
-4.58
-15.98
-28.31
-40.48
-51.49
-60.82
-68.67
-75.97
-84.01
-94.23
-107.64
-124.57
-144.05
-163.57
-179.13
-186.05
-180.30
-160.02
-126.47
-83.92
-38.40
4.25
39.93
67.07
86.13
98.59
105.90
108.98
108.49
105.23
100.51
96.00
93.16
92.78
94.60
97.55
100.20
101.42
100.74
98.48
95.41
92.23
89.23
86.02
81.71
75.40
66.57
55.45
42.90
30.19
18.47
8.48
0.22
-6.89
-13.78
-21.30
-29.90
-39.48
-49.41
-58.85
-67.06
-73.75
-79.20
-84.27
-90.17
-98.27
-109.61
-124.49
-141.96
-159.49
-173.21
-178.71
-172.38
-152.67
-120.87
-80.86
-38.02
2.42
36.62
62.79
80.88
91.86
97.02
97.55
94.64
89.62
84.13
79.79
77.86
78.81
82.23
87.00
91.77
95.43
97.41
97.78
97.01
95.64
93.98
91.89
88.91
84.44
78.15
70.21
61.37
52.67
45.03
38.82
33.65
28.58
22.53
14.79
5.40
-4.94
-15.12
-24.12
-31.41
-37.14
-42.02
-47.09
-53.36
-61.71
-72.55
-85.64
-99.74
-112.47
-120.57
-120.70
-110.57
-89.95
-61.01
-27.77
5.07
33.60
55.52
70.30
78.55
81.37
79.82
74.90
67.72
59.76
52.65
47.84
46.09
47.26
50.33
53.90
56.71
58.08
58.06
57.18
56.03
54.88
53.48
51.23
47.47
41.90
34.76
26.83
19.13
12.51
7.33
3.26
-0.47
-4.78
-10.29
-17.04
-24.50
-31.78
-38.06
-42.87
-46.33
-49.04
-51.94
-55.99
-61.98
-70.30
-80.57
-91.47
-100.64
-105.17
-102.27
-90.42
-70.01
-43.51
-14.74
12.30
34.57
50.62
60.49
65.09
65.60
62.98
58.08
51.83
45.39
39.99
36.63
35.67
36.75
38.94
41.18
42.71
43.25
43.04
42.45
41.71
40.72
39.13
36.51
32.70
27.89
22.64
17.57
13.09
9.22
5.61
1.73
-2.82
-8.12
-13.84
-19.46
-24.47
-28.63
-32.03
-35.09
-38.37
-42.45
-47.62
-53.61
-59.54
-63.89
-64.85
-60.95
-51.61
-37.53
-20.45
-2.71
13.57
27.00
37.04
43.78
47.60
48.90
47.97
45.20
41.09
36.31
31.52
27.24
23.68
20.85
18.52
16.45
14.41
12.31
10.18
8.16
6.40
4.96
3.71
2.40
0.70
-1.57
-4.42
-7.63
-10.89
-13.87
-16.34
-18.24
-19.70
-20.97
-22.39
-24.30
-27.01
-30.62
-34.92
-39.39
-43.17
-45.33
-45.12
-42.13
-36.52
-28.96
-20.37
-11.76
-3.98
2.36
6.88
9.45
10.12
9.17
7.02
4.24
1.35
-1.23
-3.30
-4.85
-5.94
-6.68
-7.14
-7.35
-7.32
-7.11
-6.85
-6.77
-7.20
-8.39
-10.44
-13.28
-16.63
-20.11
-23.42
-26.36
-29.00
-31.55
-34.39
-37.93
-42.43
-47.77
-53.34
-58.03
-60.42
-59.28
-54.01
-44.96
-33.34
-20.89
-9.33
0.15
7.06
11.50
13.89
14.60
13.90
11.98
9.09
5.72
2.51
0.10
-1.09
-1.06
-0.11
1.20
2.30
2.74
2.23
0.64
-2.00
-5.51
-9.60
-13.92
-18.14
-22.10
-25.82
-29.44
-33.16
-37.23
-41.95
-47.66
-54.51
-62.20
-69.64
-75.05
-76.35
-72.00
-61.69
-46.52
-28.79
-11.15
4.21
16.00
23.91
28.26
29.65
28.67
25.96
22.23
18.26
14.86
12.61
11.72
12.00
12.99
14.19
15.19
15.81
15.96
15.54
14.29
11.88
8.04
2.76
-3.60
-10.41
-16.99
-22.92
-28.12
-32.95
-37.98
-43.88
-51.19
-60.09
-70.10
-79.94
-87.54
-90.50
-86.86
-75.88
-58.47
-37.00
-14.53
6.13
23.16
35.89
44.52
49.59
51.62
50.94
48.01
43.56
38.67
34.58
32.31
32.26
34.03
36.57
38.59
39.06
37.56
34.45
30.60
26.87
23.75
21.05
18.09
14.04
8.34
1.05
-7.20
-15.47
-22.90
-29.03
-33.94
-38.21
-42.68
-48.28
-55.73
-65.34
-76.70
-88.50
-98.52
-104.04
-102.61
-92.89
-75.31
-52.03
-26.35
-1.69
19.39
35.59
46.80
53.63
56.85
57.18
55.31
52.05
48.44
45.52
44.16
44.64
46.73
49.77
52.95
55.63
57.38
58.03
57.53
55.88
53.15
49.45
45.01
40.14
35.06
29.89
24.58
18.96
12.85
6.15
-1.04
-8.48
-15.85
-22.87
-29.38
-35.47
-41.53
-48.18
-56.19
-66.09
-77.74
-90.01
-100.72
-107.02
-106.29
-96.99
-79.36
-55.51
-28.77
-2.68
19.94
37.57
49.96
57.64
61.44
62.10
60.27
56.70
52.37
48.43
45.92
45.45
46.90
49.56
52.40
54.51
55.42
55.20
54.20
52.74
50.84
48.15
44.22
38.71
31.71
23.75
15.63
8.13
1.70
-3.69
-8.59
-13.77
-19.96
-27.49
-36.17
-45.31
-54.08
-61.86
-68.56
-74.75
-81.40
-89.65
-100.39
-113.95
-129.78
-146.32
-160.97
-170.51
-171.80
-162.86
-143.61
-116.18
-84.39
-52.50
-24.01
-0.88
16.50
28.69
36.50
40.63
41.70
40.66
38.96
38.31
40.17
45.19
52.89
61.92
70.65
77.77
82.65
85.42
86.55
86.55
85.58
83.43
79.66
73.99
66.55
57.97
49.20
41.16
34.38
28.72
23.48
17.71
10.75
2.46
-6.64
-15.63
-23.68
-30.37
-35.93
-41.20
-47.30
-55.36
-66.11
-79.62
-94.99
-110.23
-122.38
-128.11
-124.59
-110.53
-86.75
-56.12
-22.77
9.14
36.43
57.44
71.87
80.27
83.53
82.59
78.54
72.75
66.90
62.62
61.14
62.86
67.22
72.99
78.72
83.27
86.13
87.36
87.35
86.43
84.62
81.64
77.13
70.92
63.30
54.95
46.76
39.47
33.37
28.22
23.32
17.86
11.27
3.50
-4.90
-13.13
-20.35
-26.18
-30.79
-34.97
-39.81
-46.41
-55.54
-67.20
-80.37
-92.89
-101.79
-103.93
-97.02
-80.48
-55.83
-26.37
3.88
31.27
53.41
69.36
79.28
83.76
83.53
79.37
72.35
64.02
56.25
50.81
48.78
50.27
54.40
59.75
64.90
68.85
71.21
72.04
71.64
70.24
67.88
64.48
59.96
54.38
48.03
41.43
35.14
29.59
24.88
20.75
16.65
12.00
6.42
-0.06
-6.97
-13.63
-19.44
-24.10
-27.77
-30.99
-34.54
-39.19
-45.54
-53.74
-63.25
-72.67
-79.84
-82.32
-78.12
-66.52
-48.44
-26.32
-3.35
17.42
33.87
45.13
51.37
53.31
51.90
48.04
42.59
36.49
30.79
26.42
24.07
23.88
25.49
28.12
30.91
33.17
34.60
35.15
34.98
34.18
32.74
30.55
27.54
23.72
19.25
14.37
9.29
4.16
-0.91
-5.86
-10.64
-15.17
-19.38
-23.26
-26.84
-30.23
-33.62
-37.28
-41.56
-46.79
-53.00
-59.70
-65.70
-69.27
-68.65
-62.75
-51.66
-36.77
-20.33
-4.71
8.34
18.02
24.35
27.72
28.53
27.09
23.73
19.06
14.02
9.73
7.07
6.39
7.38
9.24
11.05
12.11
12.19
11.49
10.40
9.21
7.95
6.37
4.10
0.93
-3.08
-7.57
-12.05
-16.10
-19.58
-22.66
-25.64
-28.89
-32.67
-37.20
-42.57
-48.73
-55.28
-61.29
-65.33
-65.78
-61.39
-51.81
-37.97
-21.85
-5.92
7.67
17.58
23.46
25.77
25.29
22.88
19.23
14.97
10.65
6.85
4.06
2.56
2.38
3.27
4.83
6.60
8.17
9.23
9.50
8.79
6.89
3.77
-0.43
-5.42
-10.79
-16.10
-21.07
-25.57
-29.71
-33.79
-38.30
-43.79
-50.52
-58.18
-65.56
-70.69
-71.29
-65.67
-53.52
-36.19
-16.38
2.72
18.50
29.55
35.76
37.92
37.11
34.24
29.96
24.78
19.24
14.06
9.93
7.39
6.56
7.16
8.56
10.02
10.90
10.77
9.47
6.98
3.39
-1.14
-6.43
-12.23
-18.20
-24.03
-29.56
-34.88
-40.40
-46.75
-54.56
-64.00
-74.37
-83.92
-90.10
-90.26
-82.62
-67.10
-45.44
-20.86
3.01
23.16
37.85
46.75
50.52
50.25
47.09
42.06
36.14
30.26
25.29
21.87
20.23
20.14
21.05
22.24
23.15
23.41
22.84
21.34
18.76
14.89
9.58
2.84
-5.02
-13.41
-21.64
-29.13
-35.66
-41.50
-47.44
-54.55
-63.83
-75.58
-88.92
-101.54
-110.12
-111.29
-102.81
-84.54
-58.69
-29.12
-0.14
24.80
43.82
56.68
64.16
67.35
67.13
64.13
59.01
52.70
46.49
41.76
39.57
40.22
43.10
46.87
49.96
51.15
49.98
46.84
42.62
38.27
34.28
30.53
26.33
20.83
13.47
4.24
-6.20
-16.84
-26.60
-34.85
-41.59
-47.37
-53.08
-59.71
-68.06
-78.62
-91.41
-105.62
-119.38
-129.76
-133.38
-127.37
-110.60
-84.31
-52.00
-18.31
12.39
37.19
55.02
66.34
72.32
74.23
73.18
70.15
66.20
62.44
59.88
59.08
60.04
62.16
64.62
66.63
67.77
67.96
67.32
65.94
63.69
60.30
55.45
49.05
41.42
33.14
24.94
17.23
9.99
2.79
-4.97
-13.60
-22.93
-32.36
-41.10
-48.62
-54.85
-60.35
-66.02
-72.93
-82.00
-93.65
-107.42
-121.65
-133.47
-139.27
-135.73
-121.08
-95.97
-63.51
-28.36
4.74
32.37
53.09
67.19
75.84
80.26
81.23
79.30
75.25
70.30
66.09
64.05
64.81
67.92
71.99
75.39
76.97
76.49
74.61
72.33
70.39
68.80
66.79
63.33
57.61
49.59
40.05
30.28
21.53
14.48
8.97
4.15
-1.14
-7.82
-16.12
-25.56
-35.10
-43.70
-50.74
-56.31
-61.09
-66.14
-72.60
-81.34
-92.78
-106.52
-121.04
-133.65
-140.79
-139.03
-126.27
-102.77
-71.32
-36.48
-3.04
25.39
47.12
62.27
71.90
77.19
78.97
77.81
74.41
69.88
65.68
63.20
63.26
65.76
69.81
74.06
77.27
78.75
78.46
76.87
74.56
71.92
68.88
65.07
60.05
53.55
45.73
37.10
28.41
20.36
13.43
7.70
2.77
-2.02
-7.47
-14.09
-21.94
-30.48
-38.79
-45.97
-51.54
-55.71
-59.33
-63.58
-69.58
-78.08
-89.20
-102.29
-115.69
-126.76
-132.23
-129.02
-115.30
-91.40
-60.04
-25.61
7.18
34.68
55.08
68.40
75.70
78.29
77.27
73.50
67.96
61.91
56.80
53.91
53.88
56.56
60.97
65.79
69.69
71.76
71.73
69.83
66.70
63.01
59.22
55.37
51.18
46.22
40.16
33.06
25.38
17.86
11.22
5.83
1.56
-2.19
-6.23
-11.23
-17.42
-24.52
-31.87
-38.77
-44.76
-49.79
-54.15
-58.38
-63.07
-68.89
-76.47
-86.13
-97.50
-109.06
-118.03
-120.97
-114.91
-98.56
-73.13
-42.11
-10.14
18.49
41.04
56.70
66.09
70.42
70.79
68.02
62.86
56.36
49.96
45.23
43.30
44.48
48.11
52.84
57.15
59.93
60.74
59.84
57.84
55.40
52.86
50.17
47.02
43.05
38.05
32.13
25.72
19.37
13.63
8.81
4.91
1.55
-1.82
-5.74
-10.60
-16.39
-22.77
-29.19
-35.11
-40.16
-44.27
-47.73
-51.07
-54.98
-60.15
-67.11
-75.92
-85.78
-94.90
-100.61
-100.14
-91.52
-74.51
-50.90
-24.04
2.18
24.55
41.24
51.98
57.49
58.85
56.98
52.65
46.64
40.03
34.19
30.41
29.51
31.39
35.11
39.20
42.36
43.86
43.81
42.82
41.58
40.42
39.11
37.08
33.75
28.87
22.76
16.15
9.95
4.82
0.96
-1.99
-4.75
-8.08
-12.45
-17.83
-23.76
-29.51
-34.48
-38.41
-41.46
-44.20
-47.34
-51.65
-57.65
-65.37
-74.04
-81.95
-86.70
-85.85
-77.79
-62.52
-41.81
-18.74
3.34
21.80
35.32
43.87
48.15
49.00
47.09
42.89
37.01
30.37
24.18
19.62
17.51
18.00
20.56
24.18
27.71
30.19
31.07
30.29
28.19
25.31
22.15
18.98
15.74
12.19
8.00
3.00
-2.68
-8.67
-14.44
-19.53
-23.74
-27.12
-30.03
-32.92
-36.30
-40.57
-46.04
-52.75
-60.29
-67.63
-73.12
-74.77
-70.91
-60.82
-45.19
-26.05
-6.17
11.79
25.97
35.62
40.88
42.32
40.55
36.18
29.88
22.65
15.74
10.42
7.53
7.17
8.65
10.81
12.52
13.15
12.71
11.65
10.43
9.19
7.55
4.85
0.49
-5.61
-12.91
-20.47
-27.27
-32.77
-36.96
-40.47
-44.25
-49.23
-56.07
-64.79
-74.56
-83.67
-89.77
-90.40
-83.77
-69.53
-49.00
-24.94
-0.72
20.65
37.15
48.04
53.57
54.47
51.69
46.23
39.21
31.95
25.75
21.66
20.09
20.72
22.61
24.57
25.64
25.38
23.98
21.97
19.82
17.62
14.94
11.02
5.28
-2.37
-11.32
-20.47
-28.71
-35.35
-40.46
-44.84
-49.73
-56.37
-65.51
-77.04
-89.64
-100.92
-107.76
-107.24
-97.57
-78.87
-53.35
-24.66
3.20
27.04
45.08
56.96
63.27
64.87
62.62
57.38
50.25
42.67
36.25
32.23
31.06
32.20
34.36
36.07
36.24
34.62
31.65
28.14
24.67
21.30
17.47
12.31
5.17
-4.01
-14.58
-25.37
-35.14
-43.10
-49.22
-54.27
-59.54
-66.42
-75.95
-88.25
-102.22
-115.45
-124.59
-126.18
-117.87
-99.25
-72.22
-40.49
-8.43
20.21
43.08
59.38
69.37
73.77
73.40
69.21
62.44
54.81
48.20
44.17
43.47
45.75
49.75
53.84
56.65
57.55
56.71
54.77
52.34
49.63
46.21
41.37
34.50
25.61
15.36
4.92
-4.54
-12.37
-18.66
-24.15
-30.00
-37.41
-47.24
-59.62
-73.65
-87.26
-97.33
-100.47
-94.09
-77.35
-51.76
-20.83
10.93
39.45
61.96
77.39
85.98
88.61
86.38
80.36
71.83
62.35
53.71
47.47
44.57
44.90
47.43
50.57
52.86
53.40
52.15
49.69
46.74
43.70
40.40
36.18
30.35
22.57
13.20
3.19
-6.21
-13.99
-19.79
-24.04
-27.87
-32.73
-39.94
-50.15
-62.97
-76.75
-88.77
-95.83
-95.12
-85.16
-66.44
-41.34
-13.55
13.07
35.44
51.84
61.95
66.37
66.09
62.15
55.63
47.71
39.74
33.15
29.01
27.69
28.71
30.89
32.84
33.55
32.70
30.71
28.29
25.91
23.53
20.60
16.37
10.42
2.93
-5.38
-13.47
-20.49
-26.10
-30.56
-34.75
-39.84
-46.93
-56.57
-68.32
-80.47
-90.24
-94.48
-90.69
-78.03
-57.79
-33.06
-7.78
14.48
31.43
42.37
47.80
48.79
46.34
41.13
33.72
24.78
15.41
6.94
0.69
-2.49
-2.57
-0.34
2.77
5.22
5.82
4.05
0.12
-5.23
-11.06
-16.60
-21.43
-25.54
-29.20
-32.83
-36.93
-41.98
-48.33
-55.90
-63.88
-70.51
-73.27
-69.57
-57.74
-37.86
-12.03
16.14
42.60
64.08
78.83
86.67
88.53
85.75
79.57
71.08
61.33
51.46
42.67
35.97
31.92
30.46
30.97
32.51
34.10
34.98
34.68
33.00
29.96
25.65
20.26
14.12
7.58
1.00
-5.36
-11.50
-17.65
-24.31
-31.99
-40.92
-50.67
-59.99
-66.82
-68.83
-64.19
-52.35
-34.37
-12.80
9.05
28.16
42.49
51.34
55.10
54.72
51.19
45.29
37.74
29.31
21.07
14.26
9.92
8.60
9.98
13.00
16.15
18.03
17.81
15.47
11.60
7.06
2.53
-1.76
-5.98
-10.48
-15.56
-21.35
-27.91
-35.32
-43.61
-52.50
-61.05
-67.57
-69.84
-65.90
-54.93
-37.72
-16.71
4.86
23.86
38.20
47.15
51.09
50.97
47.78
42.30
35.21
27.30
19.61
13.27
9.25
8.01
9.23
11.98
14.99
17.06
17.43
15.97
13.06
9.36
5.43
1.56
-2.25
-6.24
-10.69
-15.87
-21.96
-29.14
-37.38
-46.31
-54.91
-61.48
-63.90
-60.33
-49.96
-33.49
-13.13
8.02
26.97
41.58
50.94
55.30
55.49
52.58
47.46
40.96
33.94
27.31
21.93
18.35
16.69
16.56
17.33
18.35
19.18
19.55
19.33
18.38
16.48
13.47
9.32
4.21
-1.38
-6.94
-11.98
-16.36
-20.28
-24.32
-29.22
-35.60
-43.51
-52.12
-59.69
-63.91
-62.63
-54.70
-40.53
-22.08
-2.24
16.01
30.51
40.23
45.26
46.28
44.17
39.74
33.73
27.00
20.54
15.33
12.10
11.08
11.91
13.83
15.96
17.58
18.32
18.12
17.09
15.39
13.09
10.22
6.80
2.94
-1.23
-5.55
-9.90
-14.25
-18.72
-23.64
-29.40
-36.16
-43.58
-50.52
-55.23
-55.83
-50.93
-40.22
-24.70
-6.30
12.67
30.15
44.69
55.41
61.83
63.78
61.39
55.27
46.61
37.03
28.20
21.49
17.59
16.51
17.77
20.75
24.99
30.20
36.11
42.27
48.00
52.56
55.47
56.76
56.89
56.48
55.90
54.99
53.10
49.44
43.54
35.39
25.41
14.18
2.27
-9.78
-21.32
-31.57
-39.77
-45.53
-48.96
-50.69
-51.55
-52.24
-53.08
-54.10
-55.27
-56.71
-58.64
-61.17
-64.01
-66.44
-67.52
-66.50
-63.22
-58.12
-52.08
-46.02
-40.53
-35.80
-31.74
-28.26
-25.53
-24.00
-24.26
-26.61
-30.86
-36.29
-41.88
-46.71
-50.33
-52.91
-55.14
-57.94
-62.16
-68.37
-76.57
-86.08
-95.43
-102.44
-104.68
-100.12
-87.92
-68.77
-44.89
-19.40
4.56
24.52
39.07
47.83
51.07
49.57
44.41
37.03
29.13
22.45
18.36
17.53
19.69
23.81
28.46
32.30
34.52
34.93
33.85
31.71
28.72
24.71
19.34
12.33
3.89
-5.32
-14.33
-22.30
-28.84
-34.25
-39.35
-45.19
-52.71
-62.44
-74.17
-86.75
-98.04
-105.19
-105.40
-96.78
-79.27
-54.78
-26.80
0.77
24.64
42.96
55.29
62.11
64.25
62.55
57.85
51.27
44.35
38.78
36.02
36.72
40.49
45.95
51.23
54.63
55.19
52.93
48.72
43.74
38.90
34.41
29.82
24.26
17.10
8.27
-1.58
-11.35
-19.98
-26.92
-32.30
-36.91
-41.88
-48.31
-57.00
-68.23
-81.49
-95.38
-107.55
-115.05
-114.98
-105.42
-86.27
-59.51
-28.77
1.72
28.26
48.60
62.07
69.27
71.42
69.94
66.13
61.25
56.49
52.89
51.19
51.71
54.23
58.11
62.51
66.53
69.39
70.51
69.58
66.59
61.80
55.66
48.71
41.45
34.20
27.14
20.22
13.21
5.88
-1.90
-10.04
-18.28
-26.18
-33.45
-40.01
-46.13
-52.40
-59.66
-68.80
-80.39
-94.22
-108.84
-121.55
-128.74
-127.01
-114.29
-90.88
-59.54
-24.70
8.88
37.48
59.15
73.69
81.96
85.23
84.69
81.40
76.57
71.57
67.81
66.37
67.61
70.94
75.14
78.79
80.87
81.09
79.82
77.78
75.48
72.98
69.84
65.41
59.29
51.60
43.05
34.59
26.99
20.45
14.59
8.63
1.87
-5.90
-14.32
-22.56
-29.78
-35.48
-39.85
-43.60
-47.84
-53.69
-61.97
-72.87
-85.66
-98.48
-108.44
-112.23
-107.03
-91.68
-67.26
-37.06
-5.60
22.79
45.14
60.40
69.13
72.66
72.38
69.31
64.25
58.13
52.16
47.61
45.46
45.96
48.52
52.01
55.21
57.26
57.79
56.84
54.59
51.16
46.57
40.92
34.44
27.57
20.78
14.32
8.14
1.88
-4.79
-12.00
-19.53
-26.84
-33.43
-39.04
-43.80
-48.27
-53.21
-59.44
-67.56
-77.77
-89.46
-101.05
-109.94
-113.04
-107.73
-92.93
-69.70
-41.16
-11.52
15.23
36.38
50.86
58.97
61.67
60.04
55.16
48.21
40.68
34.24
30.29
29.54
31.62
35.25
38.74
40.66
40.41
38.27
35.09
31.71
28.48
24.98
20.36
13.83
5.19
-4.94
-15.31
-24.58
-31.90
-37.22
-41.36
-45.63
-51.41
-59.72
-70.77
-83.66
-96.30
-105.66
-108.48
-102.33
-86.50
