1523174530.00
64.000000
-0.00
-0.00
-0.00
-0.00
-0.00
-0.00
-0.00
-0.00
-0.00
-0.00
0.00
0.01
0.01
-0.00
-0.03
-0.05
-0.05
0.00
0.13
0.36
0.66
1.01
1.37
1.72
2.06
2.40
2.79
3.24
3.80
4.42
5.06
5.66
6.20
6.68
7.15
7.68
8.31
9.14
10.09
11.04
11.88
12.56
13.14
13.76
14.65
15.96
17.91
20.32
22.90
25.38
27.58
29.57
31.68
34.32
37.81
42.54
48.15
54.10
59.83
64.97
69.58
74.14
79.34
85.71
93.76
103.00
112.62
121.73
129.77
136.75
143.30
150.75
157.77
166.64
177.95
191.79
206.97
220.57
228.25
225.36
208.53
176.87
132.76
80.05
23.07
-34.94
-92.44
-149.16
-205.23
-260.37
-313.74
-363.87
-409.83
-450.89
-486.47
-515.69
-537.16
-549.12
-549.83
-538.19
-513.98
-478.40
-433.55
-382.06
-326.57
-269.32
-212.05
-156.00
-102.22
-51.57
-5.02
36.54
72.48
102.50
126.75
145.74
160.18
170.78
178.15
182.70
184.72
184.43
182.11
178.10
172.82
166.67
160.01
153.07
146.00
138.88
131.74
124.64
117.63
110.78
104.16
97.84
91.83
86.16
80.84
75.88
71.28
67.06
63.22
59.76
56.69
54.01
51.72
49.81
48.27
47.08
46.19
45.54
45.01
44.49
43.80
42.76
41.21
39.01
36.03
32.24
27.67
22.37
16.50
10.26
3.91
-2.29
-8.10
-13.28
-17.67
-21.14
-23.65
-25.20
-25.84
-25.69
-24.85
-23.46
-21.67
-19.57
-17.27
-14.84
-12.32
-9.76
-7.19
-4.64
-2.09
0.45
3.00
5.58
8.23
10.96
13.76
16.60
19.48
22.42
25.43
28.56
31.83
35.30
39.05
43.00
47.10
51.34
55.71
60.19
64.81
69.58
74.57
79.87
85.32
90.85
96.43
102.03
107.65
113.31
119.01
124.79
130.70
136.45
141.81
146.56
150.43
153.14
154.30
153.41
149.74
144.63
138.56
131.84
124.70
117.33
109.86
102.45
95.22
88.34
81.97
75.98
70.28
64.83
59.63
54.65
49.92
45.47
41.34
37.64
34.21
30.98
27.91
24.99
22.22
19.62
17.22
15.07
13.21
11.57
10.08
8.72
7.47
6.30
5.22
4.22
3.29
2.46
1.66
0.87
0.06
-0.77
-1.62
-2.47
-3.28
-4.01
-4.63
-5.09
-5.40
-5.53
-5.46
-5.23
-4.86
-4.38
-3.86
-3.34
-2.89
-2.58
-2.42
-2.46
-2.70
-3.14
-3.74
-4.46
-5.26
-6.05
-6.79
-7.43
-7.96
-8.38
-8.74
-9.06
-9.36
-9.62
-9.84
-10.01
-10.15
-10.30
-10.54
-10.94
-11.54
-12.34
-13.30
-14.36
-15.47
-16.61
-17.82
-19.19
-20.81
-22.70
-24.79
-26.93
-28.92
-30.62
-32.03
-33.32
-34.80
-36.81
-39.57
-43.09
-47.11
-51.24
-55.20
-58.93
-62.74
-67.21
-72.97
-80.34
-89.21
-98.99
-108.83
-118.07
-126.51
-134.62
-143.37
-153.80
-166.50
-181.33
-197.42
-213.52
-228.54
-242.05
-254.45
-266.85
-280.80
-297.91
-319.39
-345.47
-374.79
-404.15
-428.84
-443.70
-444.63
-429.99
-401.24
-362.44
-318.82
-274.92
-233.43
-194.83
-158.14
-122.08
-85.88
-49.36
-12.44
25.56
66.15
111.02
161.12
215.75
272.16
326.06
372.78
408.21
429.60
435.75
426.82
404.08
369.56
325.67
274.78
218.93
159.85
99.38
39.95
-15.25
-62.77
-99.86
-125.51
-140.65
-147.84
-150.02
-149.45
-147.16
-143.18
-137.30
-129.76
-121.53
-113.88
-107.75
-103.33
-99.95
-96.51
-92.11
-86.46
-79.99
-73.58
-68.04
-63.74
-60.40
-57.32
-53.75
-49.28
-44.08
-38.73
-33.98
-30.31
-27.73
-25.88
-24.20
-22.30
-20.19
-18.25
-16.97
-16.77
-17.65
-19.25
-20.94
-22.07
-22.13
-20.94
-18.59
-15.42
-11.83
-8.26
-5.07
-2.50
-0.61
0.65
1.46
2.02
2.50
3.03
3.64
4.35
5.21
6.23
7.50
9.03
10.85
12.88
15.04
17.15
19.00
20.37
21.10
21.15
20.65
19.84
19.01
18.43
18.22
18.38
18.81
19.36
19.97
20.61
21.35
22.21
23.14
23.98
24.53
24.69
24.50
24.20
24.12
24.37
24.85
25.19
25.08
24.42
23.46
22.65
22.27
22.28
22.17
21.31
19.16
15.52
10.53
4.53
-2.14
-9.17
-16.22
-22.94
-28.84
-33.54
-36.74
-38.36
-38.52
-37.49
-35.63
-33.45
-31.38
-29.84
-29.11
-29.21
-29.93
-30.89
-31.62
-31.68
-30.69
-28.35
-24.44
-18.85
-11.62
-3.07
6.15
15.16
23.00
28.88
32.44
33.78
33.40
32.02
30.26
28.60
27.31
26.46
26.06
26.04
26.25
26.47
26.42
25.92
24.86
23.36
21.61
19.90
18.44
17.34
16.50
15.75
14.88
13.73
12.25
10.50
8.61
6.73
5.06
3.75
2.88
2.40
2.08
1.57
0.53
-1.24
-3.76
-6.83
-10.13
-13.31
-16.05
-18.11
-19.22
-19.19
-17.89
-15.41
-12.04
-8.28
-4.61
-1.43
1.11
3.09
4.70
6.09
7.23
7.97
8.10
7.49
6.25
4.65
3.02
1.68
0.74
0.19
-0.05
-0.05
0.18
0.73
1.66
3.00
4.62
6.31
7.80
8.90
9.52
9.68
9.49
9.10
8.69
8.38
8.25
8.37
8.72
9.16
9.50
9.49
8.87
7.65
5.97
4.15
2.50
1.25
0.42
-0.07
-0.42
-0.83
-1.50
-2.54
-3.97
-5.65
-7.30
-8.53
-9.11
-8.95
-8.21
-7.11
-5.85
-4.45
-2.81
-0.78
1.60
4.15
6.50
8.29
9.40
9.90
10.07
10.21
10.51
11.00
11.57
12.11
12.58
13.07
13.77
14.81
16.19
17.76
19.21
20.20
20.51
20.06
18.95
17.43
15.75
14.05
12.34
10.46
8.23
5.60
2.76
0.09
-1.95
-3.02
-3.09
-2.46
-1.64
-1.19
-1.48
-2.63
-4.49
-6.68
-8.77
-10.37
-11.25
-11.44
-11.18
-10.85
-10.78
-11.13
-11.74
-12.30
-12.50
-12.24
-11.68
-11.28
-11.52
-12.79
-15.16
-18.35
-21.75
-24.69
-26.53
-26.93
-25.88
-23.66
-20.72
-17.51
-14.40
-11.66
-9.44
-7.81
-6.75
-6.19
-5.90
-5.66
-5.28
-4.67
-3.85
-2.86
-1.71
-0.30
1.46
3.67
6.32
9.22
12.14
14.82
17.12
18.99
20.51
21.74
22.72
23.41
23.77
23.80
23.58
23.23
22.88
22.60
22.28
21.80
21.05
19.98
18.73
17.39
16.03
14.57
12.89
10.85
8.47
5.90
3.34
0.93
-1.42
-3.99
-7.18
-11.23
-16.07
-21.29
-26.28
-30.39
-33.15
-34.37
-34.11
-32.72
-30.63
-28.31
-26.14
-24.29
-22.72
-21.13
-19.15
-16.32
-12.39
-7.35
-1.55
4.34
9.55
13.46
15.84
16.87
17.12
17.31
17.97
19.40
21.52
24.04
26.58
28.83
30.55
31.58
31.85
31.36
30.20
28.58
26.78
25.13
23.84
22.98
22.37
21.73
20.77
19.32
17.40
15.19
12.99
11.05
9.49
8.27
7.22
6.08
4.65
2.84
0.64
-1.80
-4.33
-6.85
-9.36
-11.93
-14.80
-18.16
-22.03
-26.28
-30.42
-33.77
-35.59
-35.32
-32.77
-28.32
-22.76
-17.03
-11.94
-7.85
-4.68
-2.04
0.45
2.99
5.56
8.00
10.22
12.14
13.84
15.36
16.72
17.90
18.94
19.95
21.10
22.56
24.35
26.32
28.15
29.56
30.38
30.63
30.43
29.99
29.46
28.87
28.14
27.21
26.05
24.68
23.19
21.64
20.06
18.45
16.80
15.10
13.36
11.64
9.98
8.46
7.16
6.12
5.26
4.45
3.47
2.16
0.43
-1.69
-4.02
-6.39
-8.66
-10.84
-13.00
-15.32
-17.92
-20.86
-24.05
-27.19
-29.82
-31.37
-31.36
-29.49
-25.87
-20.91
-15.27
-9.67
-4.67
-0.63
2.39
4.50
5.99
7.10
8.08
9.08
10.10
11.10
11.98
12.71
13.33
14.01
14.96
16.28
17.90
19.61
21.19
22.48
23.44
24.13
24.60
24.86
24.85
24.55
23.98
23.29
22.64
22.09
21.62
21.10
20.35
19.26
17.78
15.95
13.83
11.50
9.08
6.72
4.57
2.79
1.44
0.53
0.02
-0.15
0.00
0.44
1.06
1.71
2.13
2.11
1.51
0.40
-1.06
-2.56
-3.92
-5.08
-6.14
-7.34
-8.92
-10.99
-13.40
-15.77
-17.58
-18.32
-17.69
-15.66
-12.50
-8.67
-4.68
-0.92
2.33
4.98
7.04
8.56
9.59
10.23
10.60
10.83
11.05
11.34
11.67
11.99
12.20
12.29
12.32
12.44
12.75
13.24
13.84
14.40
14.79
14.96
14.98
14.95
14.99
15.11
15.21
15.15
14.76
14.01
13.02
11.99
11.21
10.78
10.69
10.72
10.65
10.27
9.54
8.55
7.40
6.19
4.92
3.49
1.86
0.02
-1.90
-3.77
-5.42
-6.75
-7.65
-8.10
-8.13
-7.87
-7.52
-7.33
-7.45
-7.90
-8.49
-8.78
-8.29
-6.53
-3.21
1.64
7.55
13.69
18.89
22.03
22.28
19.44
14.03
7.10
-0.04
-6.31
-11.06
-14.08
-15.50
-15.56
-14.54
-12.70
-10.36
-7.87
-5.53
-3.43
-1.49
0.48
2.65
4.98
7.22
8.95
9.81
9.59
8.31
6.21
3.67
1.07
-1.26
-3.10
-4.36
-5.06
-5.29
-5.16
-4.79
-4.29
-3.82
-3.46
-3.26
-3.22
-3.28
-3.45
-3.78
-4.33
-5.16
-6.20
-7.26
-8.13
-8.62
-8.75
-8.74
-8.92
-9.57
-10.77
-12.41
-14.19
-15.75
-16.77
-17.02
-16.36
-14.83
-12.60
-10.03
-7.54
-5.51
-4.07
-3.13
-2.36
-1.36
0.10
1.98
4.04
5.92
7.37
8.32
8.85
9.10
9.27
9.44
9.74
10.24
11.00
12.04
13.26
14.48
15.53
16.23
16.53
16.47
16.09
15.42
14.48
13.32
12.09
11.03
10.40
10.31
10.73
11.39
11.90
11.77
10.62
8.19
4.53
0.05
-4.53
-8.37
-10.72
-11.29
-10.27
-8.25
-5.94
-3.90
-2.34
-1.28
-0.61
-0.30
-0.43
-1.12
-2.41
-4.24
-6.35
-8.50
-10.45
-12.13
-13.50
-14.61
-15.41
-15.75
-15.37
-14.08
-11.81
-8.81
-5.52
-2.47
-0.11
1.38
2.07
2.26
2.24
2.23
2.33
2.51
2.74
3.01
3.38
3.92
4.63
5.47
6.34
7.11
7.80
8.48
9.28
10.22
11.22
12.07
12.56
12.54
12.08
11.37
10.63
9.99
9.49
9.05
8.62
8.15
7.67
7.24
6.82
6.38
5.82
5.05
4.07
2.89
1.60
0.21
-1.22
-2.66
-4.06
-5.38
-6.60
-7.73
-8.78
-9.80
-10.78
-11.71
-12.59
-13.46
-14.36
-15.42
-16.63
-17.85
-18.81
-19.18
-18.73
-17.48
-15.69
-13.71
-11.82
-10.10
-8.42
-6.61
-4.58
-2.50
-0.65
0.70
1.46
1.83
2.13
2.67
3.54
4.66
5.86
7.01
8.19
9.50
11.04
12.73
14.35
15.63
16.42
16.73
16.77
16.74
16.70
16.56
16.06
15.04
13.48
11.56
9.55
7.72
6.27
5.24
4.61
4.29
4.16
4.17
4.25
4.33
4.41
4.42
4.31
4.04
3.57
2.92
2.04
0.94
-0.40
-1.88
-3.40
-4.80
-6.00
-7.07
-8.22
-9.67
-11.52
-13.62
-15.68
-17.33
-18.40
-18.83
-18.67
-17.95
-16.57
-14.47
-11.68
-8.47
-5.26
-2.44
-0.19
1.53
2.93
4.24
5.53
6.74
7.71
8.35
8.64
8.65
8.51
8.34
8.19
8.08
8.02
8.05
8.20
8.48
8.88
9.33
9.76
10.11
10.36
10.52
10.61
10.69
10.79
10.87
10.85
10.60
10.03
9.14
8.04
6.96
6.03
5.32
4.74
4.13
3.37
2.43
1.49
0.69
0.13
-0.23
-0.50
-0.83
-1.35
-2.14
-3.22
-4.54
-6.02
-7.51
-8.94
-10.24
-11.48
-12.74
-14.20
-15.89
-17.83
-19.94
-21.98
-23.68
-24.66
-24.57
-23.23
-20.74
-17.52
-14.12
-11.08
-8.61
-6.71
-5.18
-3.83
-2.68
-1.83
-1.45
-1.55
-1.94
-2.22
-2.05
-1.16
0.57
2.99
5.89
9.00
12.00
14.70
16.94
18.69
19.97
20.83
21.29
21.34
21.00
20.24
19.14
17.85
16.49
15.25
14.16
13.19
12.18
11.00
9.60
8.05
6.63
5.72
5.63
6.50
8.18
10.30
12.38
14.01
14.91
14.91
13.99
12.23
9.77
6.86
3.82
0.90
-1.77
-4.25
-6.71
-9.26
-11.84
-14.18
-15.97
-16.99
-17.28
-17.00
-16.36
-15.44
-14.17
-12.47
-10.38
-8.15
-6.15
-4.71
-3.98
-3.79
-3.84
-3.86
-3.75
-3.61
-3.58
-3.77
-4.07
-4.26
-4.07
-3.38
-2.22
-0.89
0.30
1.03
1.16
0.82
0.28
-0.06
0.11
0.91
2.24
3.75
5.08
5.88
6.05
5.65
4.90
3.98
3.05
2.19
1.43
0.83
0.38
0.04
-0.32
-0.83
-1.56
-2.37
-2.99
-3.20
-2.91
-2.34
-1.82
-1.73
-2.21
-3.23
-4.57
-6.07
-7.63
-9.27
-11.01
-12.74
-14.32
-15.51
-16.16
-16.18
-15.61
-14.55
-13.10
-11.34
-9.29
-7.01
-4.62
-2.29
-0.20
1.46
2.68
3.55
4.23
4.90
5.64
6.48
7.38
8.27
9.13
10.00
10.91
11.95
13.15
14.51
15.98
17.49
18.89
20.04
20.87
21.37
21.66
22.07
23.02
24.91
27.84
31.37
34.39
35.45
33.07
26.41
15.71
2.26
-11.93
-24.75
-34.57
-40.63
-42.93
-42.13
-39.21
-35.18
-30.97
-27.26
-24.54
-22.99
-22.63
-23.26
-24.65
-26.46
-28.25
-29.55
-29.89
-28.90
-26.55
-23.09
-18.99
-14.86
-11.21
-8.33
-6.26
-4.86
-3.86
-3.06
-2.32
-1.61
-0.92
-0.22
0.60
1.69
3.21
5.23
7.64
10.14
12.43
14.25
15.54
16.45
17.21
18.00
18.92
19.89
20.76
21.36
21.61
21.54
21.29
21.06
21.06
21.41
22.08
22.90
23.63
24.08
24.18
23.99
23.58
22.95
22.00
20.55
18.57
16.17
13.72
11.58
10.04
9.12
8.62
8.27
7.87
7.33
6.71
6.08
5.45
4.78
4.12
3.57
3.30
3.29
3.26
2.60
0.63
-3.10
-8.43
-14.62
-20.57
-25.21
-27.96
-28.84
-28.40
-27.37
-26.41
-25.87
-25.83
-26.07
-26.33
-26.22
-25.45
-23.82
-21.36
-18.29
-15.04
-12.05
-9.74
-8.28
-7.63
-7.51
-7.48
-7.16
-6.35
-5.07
-3.55
-2.11
-1.02
-0.37
-0.13
-0.17
-0.36
-0.58
-0.69
-0.53
0.07
1.21
2.83
4.62
6.17
7.11
7.24
6.66
5.63
4.43
3.24
2.08
0.83
-0.58
-2.14
-3.77
-5.38
-7.08
-9.00
-11.37
-14.33
-17.91
-21.91
-26.16
-30.47
-34.62
-38.47
-41.78
-44.38
-46.22
-47.46
-48.38
-49.40
-50.90
-53.06
-55.90
-59.28
-63.03
-67.08
-71.48
-76.38
-81.93
-88.16
-94.97
-102.12
-109.36
-116.49
-123.38
-129.78
-135.35
-139.53
-141.66
-141.03
-136.99
-129.07
-116.94
-100.34
-79.19
-53.63
-24.22
8.00
41.49
74.45
105.02
131.62
153.09
168.86
178.79
183.19
182.72
178.27
170.87
161.51
151.09
140.27
129.54
119.23
109.50
100.45
91.97
83.87
75.92
67.94
59.91
51.89
44.11
36.84
30.39
24.98
20.81
17.89
16.13
15.28
14.99
14.94
14.87
14.69
14.39
14.09
13.80
13.41
12.73
11.53
9.78
7.58
5.30
3.31
1.91
1.16
0.93
1.04
1.37
1.94
2.78
3.91
5.22
6.55
7.73
8.69
9.51
10.23
10.89
11.40
11.64
11.51
11.05
10.38
9.68
9.10
8.64
8.26
7.87
7.47
7.14
7.01
7.15
7.51
7.90
8.07
7.86
7.17
6.05
4.57
2.79
0.73
-1.62
-4.16
-6.70
-8.99
-10.84
-12.25
-13.36
-14.43
-15.67
-17.05
-18.27
-18.93
-18.60
-17.08
-14.51
-11.31
-8.01
-5.10
-2.79
-1.08
0.15
1.12
1.98
2.85
3.82
4.97
6.33
7.86
9.43
10.82
11.88
12.54
12.83
12.89
12.89
12.97
13.23
13.68
14.29
14.95
15.51
15.78
15.61
14.95
13.80
12.30
10.64
9.01
7.61
6.62
6.15
6.22
6.75
7.48
8.10
8.28
7.85
6.74
5.07
3.02
0.77
-1.45
-3.51
-5.27
-6.68
-7.77
-8.66
-9.54
-10.44
-11.39
-12.29
-13.14
-13.95
-14.89
-16.04
-17.42
-18.91
-20.28
-21.31
-21.81
-21.62
-20.65
-18.81
-16.12
-12.72
-8.95
-5.20
-1.90
0.67
2.40
3.34
3.63
3.42
2.86
2.11
1.36
0.77
0.55
0.82
1.55
2.64
3.89
5.17
6.40
7.57
8.68
9.75
10.74
11.62
12.44
13.21
13.89
14.37
14.44
14.00
13.10
11.95
10.83
9.89
9.14
8.50
7.88
7.32
6.91
6.72
6.71
6.62
6.18
5.22
3.72
1.90
0.01
-1.71
-3.17
-4.40
-5.49
-6.58
-7.74
-8.97
-10.23
-11.47
-12.73
-14.11
-15.75
-17.71
-19.97
-22.25
-24.21
-25.40
-25.47
-24.23
-21.71
-18.16
-13.98
-9.62
-5.44
-1.72
1.40
3.89
5.72
6.91
7.48
7.54
7.26
6.81
6.38
6.11
6.16
6.58
7.41
8.58
9.89
11.06
11.87
12.17
12.07
11.78
11.56
11.56
11.77
12.09
12.38
12.56
12.60
12.51
12.33
12.00
11.46
10.63
9.50
8.19
6.88
5.77
4.98
4.49
4.18
3.88
3.48
2.95
2.40
1.86
1.34
0.74
-0.05
-1.12
-2.43
-3.87
-5.28
-6.55
-7.67
-8.70
-9.81
-11.14
-12.82
-14.79
-16.90
-18.96
-20.75
-22.13
-22.96
-23.14
-22.53
-21.00
-18.51
-15.20
-11.49
-7.90
-4.94
-2.88
-1.63
-0.89
-0.19
0.77
2.02
3.37
4.55
5.35
5.76
5.96
6.20
6.60
7.20
7.86
8.43
8.88
9.22
9.53
9.85
10.16
10.34
10.33
10.11
9.79
9.47
9.28
9.23
9.27
9.30
9.23
9.05
8.76
8.41
8.00
7.46
6.75
5.84
4.80
3.72
2.68
1.68
0.65
-0.48
-1.75
-3.07
-4.32
-5.38
-6.24
-7.02
-7.91
-9.06
-10.48
-12.04
-13.62
-15.11
-16.58
-18.05
-19.43
-20.44
-20.64
-19.68
-17.47
-14.22
-10.40
-6.51
-2.89
0.32
3.07
5.27
6.76
7.37
7.07
6.08
4.76
3.57
2.80
2.56
2.79
3.32
4.00
4.72
5.42
6.06
6.62
7.08
7.44
7.65
7.65
7.43
7.03
6.63
6.45
6.65
7.15
7.69
7.93
7.66
6.94
6.06
5.40
5.16
5.35
5.72
5.97
5.86
5.28
4.22
2.73
0.89
-1.14
-3.15
-4.88
-6.17
-7.02
-7.71
-8.62
-10.14
-12.48
-15.53
-18.94
-22.16
-24.62
-25.89
-25.73
-24.13
-21.35
-17.82
-14.05
-10.54
-7.65
-5.53
-4.17
-3.40
-2.99
-2.69
-2.28
-1.65
-0.75
0.37
1.61
2.94
4.38
5.99
7.86
9.93
11.99
13.72
14.86
15.35
15.33
15.06
14.85
14.81
14.93
15.07
15.09
14.92
14.54
13.98
13.29
12.49
11.56
10.56
9.55
8.63
7.87
7.29
6.84
6.44
6.06
5.61
5.07
4.34
3.33
1.95
0.22
-1.70
-3.58
-5.22
-6.56
-7.70
-8.91
-10.43
-12.43
-14.88
-17.63
-20.44
-23.06
-25.28
-26.84
-27.50
-27.01
-25.12
-21.80
-17.29
-12.10
-6.95
-2.54
0.73
2.84
4.24
5.52
7.22
9.48
12.09
14.55
16.43
17.51
17.93
18.01
18.07
18.30
18.76
19.43
20.32
21.37
22.40
22.92
22.14
19.13
13.25
4.48
-6.39
-17.81
-27.97
-35.28
-38.91
-38.99
-36.33
-32.06
-27.15
-22.17
-17.27
-12.52
-8.04
-4.08
-0.90
1.44
3.11
4.42
5.64
6.82
7.78
8.20
7.84
6.69
5.04
3.31
1.99
1.35
1.36
1.72
1.92
1.40
-0.20
-2.94
-6.53
-10.38
-13.79
-16.15
-17.09
-16.58
-14.89
-12.42
-9.59
-6.71
-3.93
-1.37
0.91
2.87
4.50
5.81
6.89
7.86
8.78
9.70
10.63
11.55
12.53
13.57
14.69
15.78
16.72
17.34
17.64
17.73
17.80
18.03
18.43
18.84
19.04
18.81
18.08
16.96
15.62
14.23
12.82
11.36
9.82
8.21
6.63
5.22
4.10
3.30
2.74
2.32
1.94
1.51
0.97
0.25
-0.67
-1.77
-2.95
-4.10
-5.08
-5.87
-6.61
-7.51
-8.79
-10.60
-12.89
-15.44
-17.99
-20.22
-21.85
-22.70
-22.60
-21.48
-19.40
-16.54
-13.25
-9.91
-6.89
-4.43
-2.57
-1.25
-0.34
0.22
0.44
0.35
0.05
-0.21
-0.19
0.35
1.50
3.15
5.16
7.36
9.53
11.52
13.20
14.45
15.26
15.71
15.94
16.06
16.09
15.92
15.41
14.48
13.22
11.81
10.46
9.35
8.53
8.03
7.82
7.85
8.06
8.35
8.53
8.38
7.74
6.56
4.92
3.01
1.04
-0.89
-2.72
-4.52
-6.31
-8.16
-10.10
-12.13
-14.26
-16.50
-18.80
-21.10
-23.35
-25.48
-27.48
-29.27
-30.65
-31.31
-30.88
-29.08
-25.90
-21.65
-16.90
-12.25
-8.19
-4.92
-2.40
-0.43
1.20
2.58
3.69
4.51
5.02
5.34
5.68
6.25
7.16
8.42
9.83
11.15
12.17
12.80
13.06
13.10
13.05
13.03
13.02
12.96
12.76
12.36
11.79
11.13
10.48
9.95
9.54
9.19
8.79
8.27
7.64
6.95
6.34
5.91
5.70
5.66
5.69
5.74
5.79
5.91
6.11
6.32
6.36
6.03
5.17
3.81
2.09
0.20
-1.74
-3.73
-5.84
-8.15
-10.67
-13.35
-16.16
-19.10
-22.22
-25.46
-28.63
-31.30
-33.01
-33.35
-32.10
-29.34
-25.37
-20.63
-15.59
-10.73
-6.45
-3.00
-0.47
1.26
2.43
3.31
4.09
4.84
5.56
6.23
6.88
7.59
8.41
9.41
10.56
11.78
13.01
14.21
15.39
16.60
17.85
19.07
20.17
20.96
21.34
21.28
20.84
20.12
19.27
18.34
17.35
16.24
14.99
13.66
12.38
11.30
10.52
10.01
9.56
8.93
7.89
6.38
4.55
2.70
1.15
0.07
-0.57
-0.99
-1.47
-2.22
-3.29
-4.59
-5.95
-7.23
-8.34
-9.34
-10.36
-11.60
-13.19
-15.20
-17.60
-20.23
-22.86
-25.15
-26.76
-27.36
-26.69
-24.69
-21.54
-17.62
-13.52
-9.82
-6.93
-4.95
-3.67
-2.69
-1.60
-0.22
1.42
3.11
4.59
5.79
6.79
7.76
8.84
10.01
11.08
11.90
12.49
13.01
13.75
14.88
16.34
17.77
18.77
18.96
18.29
16.98
15.47
14.23
13.55
13.43
13.62
13.76
13.53
12.85
11.86
10.81
10.00
9.48
9.05
8.39
7.21
5.47
3.43
1.57
0.33
-0.15
-0.06
0.16
0.09
-0.47
-1.43
-2.52
-3.54
-4.51
-5.57
-6.91
-8.53
-10.26
-11.89
-13.31
-14.59
-15.93
-17.52
-19.30
-21.00
-22.24
-22.65
-22.09
-20.58
-18.29
-15.43
-12.23
-8.96
-5.88
-3.22
-1.10
0.49
1.69
2.66
3.51
4.25
4.80
5.13
5.25
5.30
5.45
5.91
6.78
8.04
9.55
11.13
12.52
13.50
13.95
13.85
13.29
12.48
11.66
10.98
10.51
10.20
9.91
9.59
9.24
8.90
8.63
8.44
8.27
8.06
7.75
7.32
6.81
6.24
5.59
4.88
4.14
3.42
2.82
2.40
2.15
1.97
1.73
1.25
0.36
-1.04
-2.94
-5.21
-7.70
-10.25
-12.81
-15.43
-18.18
-21.04
-23.81
-26.10
-27.51
-27.76
-26.76
-24.63
-21.64
-18.08
-14.28
-10.56
-7.25
-4.64
-2.90
-2.02
-1.79
-1.89
-2.06
-2.07
-1.87
-1.40
-0.66
0.41
1.80
3.42
5.09
6.53
7.59
8.21
8.50
8.67
8.90
9.22
9.58
9.74
9.52
8.87
7.86
6.68
5.58
4.69
4.04
3.59
3.22
2.86
2.44
1.93
1.31
0.62
-0.10
-0.75
-1.28
-1.70
-2.11
-2.66
-3.58
-5.00
-6.93
-9.23
-11.70
-14.12
-16.34
-18.33
-20.12
-21.85
-23.70
-25.85
-28.44
-31.51
-34.78
-37.77
-39.78
-40.17
-38.58
-35.16
-30.54
-25.59
-21.17
-17.76
-15.40
-13.75
-12.33
-10.75
-8.83
-6.65
-4.40
-2.32
-0.60
0.58
1.16
1.20
0.94
0.78
1.16
2.36
4.42
7.07
9.87
12.42
14.48
16.05
17.28
18.32
19.19
19.77
19.93
19.54
18.62
17.37
16.05
14.88
13.95
13.16
12.33
11.33
10.15
8.96
7.97
7.28
6.81
6.25
5.32
3.82
1.81
-0.43
-2.63
-4.62
-6.45
-8.32
-10.48
-13.05
-15.99
-19.09
-22.04
-24.51
-26.16
-26.67
-25.80
-23.46
-19.79
-15.21
-10.38
-5.92
-2.28
0.44
2.41
3.93
5.17
6.17
6.77
6.86
6.49
5.88
5.35
5.14
5.35
5.91
6.70
7.61
8.63
9.87
11.39
13.14
14.98
16.64
17.90
18.68
18.99
18.93
18.60
18.01
17.18
16.15
15.01
13.91
12.94
12.09
11.25
10.27
9.01
7.45
5.65
3.77
1.94
0.24
-1.32
-2.80
-4.25
-5.76
-7.32
-8.92
-10.59
-12.38
-14.33
-16.42
-18.46
-20.02
-20.62
-19.89
-17.69
-14.26
-9.95
-5.21
-0.42
4.11
8.09
11.26
13.43
14.62
15.04
15.14
15.31
15.75
16.34
16.77
16.70
16.01
14.86
13.64
12.84
12.93
14.16
16.53
19.79
23.42
26.84
29.53
31.13
31.67
31.45
30.85
30.18
29.58
28.94
28.15
27.09
25.78
24.25
22.43
20.18
17.33
13.99
10.58
7.81
6.35
6.43
7.74
9.45
10.64
10.69
9.46
7.27
4.52
1.32
-2.58
-7.64
-14.13
-21.75
-29.69
-36.90
-42.62
-46.55
-48.92
-50.10
-50.30
-49.43
-47.24
-43.61
-38.75
-33.11
-27.10
-20.84
-14.20
-6.94
0.96
9.16
17.04
23.94
29.36
33.10
35.19
35.75
34.93
32.90
29.93
26.40
22.79
19.56
17.03
15.29
14.20
13.43
12.52
11.12
9.09
6.71
4.64
3.77
4.85
8.17
13.34
19.27
24.53
27.77
28.01
24.91
18.78
10.55
1.73
-5.71
-9.85
-9.31
-3.84
5.37
16.12
25.91
32.88
36.35
36.77
35.25
32.92
30.45
28.05
25.59
22.84
19.66
16.10
12.41
9.12
6.94
6.62
8.64
12.92
18.76
25.00
30.45
34.24
36.12
36.40
35.64
34.41
33.06
31.67
30.31
29.14
28.42
28.40
29.10
30.19
31.17
31.51
30.98
29.69
27.92
25.91
23.76
21.40
18.84
16.17
13.51
10.87
8.03
4.67
0.66
-3.71
-7.86
-11.08
-12.99
-13.63
-13.36
-12.51
-11.20
-9.33
-6.85
-4.06
-1.61
-0.23
-0.39
-2.06
-4.66
-7.38
-9.52
-10.65
-10.76
-10.07
-8.90
-7.65
-6.75
-6.57
-7.43
-9.36
-12.12
-15.23
-18.06
-20.05
-20.84
-20.39
-18.96
-17.02
-15.20
-14.08
-14.10
-15.45
-17.98
-21.28
-24.76
-27.87
-30.26
-31.76
-32.42
-32.28
-31.29
-29.28
-26.20
-22.24
-18.10
-14.84
-13.62
-15.18
-19.59
-26.13
-33.57
-40.60
-46.10
-49.40
-50.33
-49.08
-46.21
-42.59
-39.16
-36.70
-35.56
-35.53
-35.97
-36.23
-36.09
-35.79
-36.02
-37.54
-40.80
-45.72
-51.73
-57.83
-62.93
-66.06
-66.57
-64.21
-59.18
-52.02
-43.47
-34.37
-25.60
-17.94
-12.06
-8.24
-6.26
-5.28
-4.12
-1.67
2.64
8.55
15.07
20.84
24.66
25.94
24.93
22.49
19.74
17.63
16.59
16.48
16.77
16.79
16.03
14.23
11.42
7.86
4.01
0.47
-2.04
-2.98
-2.09
0.48
4.10
7.93
11.22
13.53
14.81
15.27
15.14
14.56
13.57
12.18
10.46
8.59
6.70
4.86
3.01
0.97
-1.34
-3.83
-6.27
-8.27
-9.45
-9.66
-8.94
-7.60
-5.99
-4.50
-3.38
-2.78
-2.75
-3.26
-4.23
-5.49
-6.84
-8.08
-9.08
-9.86
-10.54
-11.26
-12.08
-12.98
-13.86
-14.68
-15.53
-16.53
-17.76
-19.15
-20.49
-21.53
-22.16
-22.40
-22.39
-22.29
-22.09
-21.70
-20.96
-19.84
-18.52
-17.30
-16.50
-16.33
-16.80
-17.82
-19.25
-20.99
-22.93
-24.86
-26.44
-27.24
-26.88
-25.18
-22.29
-18.57
-14.52
-10.57
-7.03
-4.07
-1.75
-0.06
1.08
1.78
2.16
2.34
2.44
2.57
2.90
3.67
5.07
7.11
9.59
12.13
14.30
15.92
17.00
17.80
18.58
19.47
20.38
21.00
21.07
20.38
19.00
17.13
15.10
13.22
11.70
10.71
10.24
10.15
10.14
9.81
8.61
6.05
1.81
-4.21
-11.70
-20.06
-28.46
-36.04
-41.98
-45.66
-46.65
-44.74
-40.10
-33.22
-24.99
-16.55
-9.07
-3.42
0.10
1.79
2.37
2.66
3.21
4.12
5.18
6.08
6.65
7.01
7.39
8.01
8.90
9.91
10.86
11.68
12.41
13.08
13.50
13.26
11.78
8.60
3.58
-2.98
-10.44
-17.98
-24.91
-30.80
-35.44
-38.88
-41.27
-42.89
-43.99
-44.84
-45.63
-46.45
-47.26
-47.92
-48.11
-47.36
-45.10
-40.70
-33.79
-24.30
-12.62
0.60
14.68
29.22
44.03
59.05
74.06
88.55
101.89
113.54
123.42
131.85
139.41
146.54
153.20
158.83
162.46
163.17
160.44
154.41
145.84
135.89
125.70
116.01
106.94
98.06
88.75
78.56
67.49
55.94
44.43
33.34
22.69
12.21
1.57
-9.36
-20.37
-31.00
-40.81
-49.47
-56.83
-62.98
-67.94
-71.72
-74.32
-75.90
-77.01
-78.47
-81.17
-85.76
-92.32
-100.28
-108.68
-116.37
-122.31
-125.65
-125.80
-122.42
-115.56
-105.83
-94.32
-82.52
-71.90
-63.45
-57.52
-53.76
-51.46
-49.91
-48.62
-47.29
-45.74
-43.83
-41.53
-39.18
-37.47
-37.15
-38.48
-40.82
-42.60
-41.93
-37.50
-29.26
-18.60
-7.59
1.95
9.34
15.09
20.33
26.02
32.24
38.34
43.49
47.34
50.24
52.99
56.04
58.93
60.25
58.31
52.10
42.08
30.15
19.00
10.97
7.25
7.52
10.40
14.10
17.14
18.63
18.33
16.45
13.40
9.68
5.77
2.04
-1.22
-3.93
-6.09
-7.77
-9.08
-10.11
-11.01
-11.92
-13.04
-14.47
-16.23
-18.24
-20.31
-22.32
-24.14
-25.79
-27.29
-28.55
-29.38
-29.53
-28.78
-27.14
-24.85
-22.40
-20.29
-18.92
-18.50
-19.00
-20.24
-22.03
-24.23
-26.76
-29.55
-32.59
-35.94
-39.58
-43.47
-47.28
-50.42
-52.05
-51.31
-47.55
-40.71
-31.29
-20.35
-9.12
1.34
10.30
17.50
23.02
27.09
29.96
31.82
32.75
32.81
32.11
30.85
29.37
28.00
27.04
26.65
26.79
27.27
27.78
28.02
27.82
27.12
26.04
24.74
23.31
21.77
19.98
17.73
14.85
11.25
6.97
2.23
-2.68
-7.44
-11.74
-15.43
-18.55
-21.35
-24.24
-27.72
-32.14
-37.58
-43.69
-49.66
-54.39
-56.71
-55.74
-51.09
-43.04
-32.46
-20.61
-8.87
1.61
10.11
16.46
20.94
24.07
26.39
28.26
29.74
30.71
31.07
30.87
30.42
30.13
30.33
31.13
32.37
33.75
34.97
35.84
36.27
36.30
35.91
35.04
33.64
31.72
29.37
26.74
23.96
21.12
18.23
15.31
12.42
9.65
7.01
4.43
1.73
-1.27
-4.70
-8.54
-12.63
-16.79
-20.90
-24.95
-29.06
-33.42
-38.20
-43.60
-49.71
-56.44
-63.37
-69.72
-74.42
-76.40
-75.02
-70.28
-62.95
-54.35
-45.90
-38.80
-33.67
-30.64
-29.43
-29.64
-30.89
-32.97
-35.77
-39.27
-43.54
-48.60
-54.43
-60.95
-67.97
-75.25
-82.53
-89.53
-95.87
-101.17
-104.97
-106.82
-106.21
-102.61
-95.46
-84.23
-68.54
-48.27
-23.80
3.93
33.46
63.02
90.83
115.38
135.64
151.07
161.55
167.22
168.42
165.68
159.65
151.18
141.17
130.46
119.70
109.23
99.13
89.27
79.44
69.42
59.10
48.57
38.20
28.65
20.76
15.40
13.14
14.06
17.64
22.89
28.68
34.00
38.22
41.06
42.54
42.83
42.18
40.80
38.96
36.88
34.74
32.60
30.49
28.42
26.47
24.77
23.47
22.72
22.57
22.95
23.67
24.50
25.19
25.54
25.44
24.88
23.87
22.50
20.82
18.84
16.62
14.22
11.80
9.57
7.71
6.28
5.16
4.09
2.81
1.08
-1.11
-3.63
-6.28
-8.85
-11.25
-13.50
-15.68
-17.93
-20.42
-23.31
-26.75
-30.74
-35.04
-38.98
-41.64
-42.01
-39.42
-33.85
-26.02
-17.13
-8.43
-0.84
5.30
10.07
13.83
16.82
19.13
20.67
21.36
21.20
20.33
18.95
17.33
15.73
14.37
13.45
13.08
13.31
14.08
15.31
16.84
18.46
19.96
21.06
21.48
21.07
19.76
17.65
14.96
12.04
9.16
6.55
4.27
2.19
0.08
-2.35
-5.21
-8.36
-11.44
-14.02
-15.85
-16.94
-17.65
-18.50
-20.01
-22.40
-25.56
-29.09
-32.33
-34.51
-34.90
-32.91
-28.34
-21.50
-13.18
-4.50
3.47
10.00
14.89
18.32
20.63
22.10
22.77
22.58
21.51
19.74
17.62
15.57
13.92
12.84
12.32
12.29
12.67
13.39
14.38
15.53
16.67
17.60
18.03
17.77
16.69
14.83
12.37
9.56
6.70
4.02
1.65
-0.46
-2.43
-4.38
-6.36
-8.23
-9.88
-11.21
-12.28
-13.35
-14.77
-16.80
-19.52
-22.69
-25.76
-27.98
-28.57
-26.91
-22.71
-16.11
-7.71
1.62
10.97
19.68
27.48
34.50
40.95
46.88
52.01
55.64
57.03
55.59
51.23
44.39
35.92
26.85
18.12
10.48
4.36
-0.07
-2.88
-4.34
-4.82
-4.77
-4.63
-4.75
-5.33
-6.37
-7.73
-9.15
-10.42
-11.43
-12.25
-13.07
-14.15
-15.72
-17.90
-20.66
-23.80
-27.02
-29.93
-32.15
-33.42
-33.68
-33.09
-32.09
-31.19
-30.83
-31.20
-32.10
-33.02
-33.23
-32.06
-29.09
-24.30
-18.05
-10.89
-3.48
3.61
9.92
15.13
19.08
21.76
23.31
23.96
23.99
23.65
23.08
22.37
21.55
20.71
19.94
19.33
18.92
18.68
18.55
18.53
18.62
18.84
19.09
19.24
19.10
18.56
17.58
16.28
14.75
13.10
11.33
9.46
7.52
5.60
3.83
2.26
0.84
-0.59
-2.26
-4.34
-6.89
-9.77
-12.74
-15.50
-17.79
-19.53
-20.89
-22.28
-24.17
-26.92
-30.57
-34.72
-38.61
-41.27
-41.83
-39.77
-35.03
-28.09
-19.79
-11.12
-3.00
3.93
9.33
13.18
15.64
17.01
17.58
17.62
17.31
16.80
16.22
15.71
15.41
15.46
15.92
16.73
17.80
18.98
20.16
21.24
22.15
22.77
22.95
22.56
21.60
20.20
18.64
17.14
15.86
14.71
13.53
12.11
10.35
8.35
6.29
4.41
2.75
1.14
-0.71
-3.11
-6.12
-9.52
-12.92
-15.92
-18.30
-20.14
-21.70
-23.33
-25.32
-27.83
-30.94
-34.50
-38.12
-41.16
-42.76
-42.14
-38.83
-32.97
-25.25
-16.74
-8.48
-1.19
4.76
9.36
12.75
15.05
16.39
16.91
16.89
16.65
16.51
16.67
17.18
17.95
18.83
19.70
20.42
20.92
21.15
21.08
20.79
20.43
20.09
19.77
19.36
18.62
17.41
15.70
13.73
11.77
10.08
8.69
7.49
6.30
5.03
3.75
2.62
1.76
1.13
0.51
-0.38
-1.72
-3.51
-5.60
-7.80
-10.00
-12.24
-14.57
-17.07
-19.77
-22.67
-25.75
-28.95
-32.02
-34.52
-35.79
-35.25
-32.50
-27.65
-21.23
-14.06
-7.03
-0.84
4.11
7.72
10.04
11.20
11.38
10.73
9.45
7.80
6.12
4.76
4.04
4.12
4.98
6.45
8.25
10.08
11.73
13.00
13.78
14.04
13.82
13.22
12.36
11.31
10.13
8.79
7.27
5.54
3.63
1.61
-0.46
-2.54
-4.65
-6.80
-8.99
-11.18
-13.32
-15.39
-17.46
-19.66
-22.15
-25.04
-28.25
-31.39
-33.82
-34.73
-33.46
-29.71
-23.73
-16.25
-8.24
-0.66
5.84
11.00
14.84
17.51
19.16
19.83
19.53
18.30
16.33
13.92
11.47
9.37
7.84
6.98
6.70
6.81
7.10
7.42
7.69
7.84
7.84
7.62
7.10
6.14
4.62
2.50
-0.17
-3.25
-6.52
-9.73
-12.77
-15.62
-18.41
-21.36
-24.66
-28.44
-32.62
-36.95
-40.89
-43.75
-44.81
-43.54
-39.77
-33.80
-26.28
-18.07
-9.99
-2.65
3.60
8.63
12.46
15.15
16.83
17.64
17.73
17.31
16.56
15.63
14.73
14.03
13.67
13.73
14.19
14.97
15.95
16.98
17.89
18.56
18.84
18.64
17.89
16.60
14.82
12.63
10.06
7.14
3.86
0.27
-3.53
-7.35
-10.95
-14.15
-16.87
-19.23
-21.51
-24.10
-27.34
-31.41
-36.10
-40.84
-44.70
-46.67
-45.92
-42.09
-35.40
-26.63
-16.95
-7.54
0.60
6.97
11.51
14.58
16.74
18.48
20.08
21.56
22.77
23.56
23.85
23.71
23.24
22.61
21.95
21.43
21.25
21.56
22.39
23.58
24.82
25.78
26.22
26.08
25.47
24.51
23.30
21.81
19.98
17.86
15.52
13.12
10.79
8.60
6.53
4.51
2.41
0.11
-2.46
-5.34
-8.48
-11.75
-14.94
-17.90
-20.54
-23.01
-25.64
-28.87
-33.07
-38.34
-44.30
-50.10
-54.54
-56.37
-54.70
-49.31
-40.79
-30.33
-19.46
-9.53
-1.45
4.50
8.57
11.35
13.47
15.41
17.41
19.44
21.29
22.76
23.77
24.38
24.79
25.25
25.93
26.89
28.11
29.55
31.12
32.72
34.19
35.32
35.88
35.71
34.83
33.33
31.39
29.16
26.77
24.33
21.93
19.69
17.64
15.74
13.87
11.88
9.72
7.47
5.30
3.40
1.83
0.51
-0.77
-2.31
-4.39
-7.16
-10.61
-14.55
-18.69
-22.71
-26.30
-29.33
-31.89
-34.22
-36.73
-39.84
-43.85
-48.75
-54.13
-59.11
-62.43
-62.83
-59.43
-52.15
-41.73
-29.60
-17.42
-6.59
2.09
8.47
12.88
15.91
18.10
19.83
21.32
22.67
23.91
25.06
26.14
27.16
28.11
29.01
29.89
30.82
31.87
33.07
34.37
35.60
36.56
37.05
36.93
36.18
34.85
33.11
31.16
29.17
27.26
25.44
23.65
21.77
19.75
17.65
15.57
13.65
11.92
10.30
8.60
6.69
4.54
2.27
0.04
-2.06
-4.06
-6.12
-8.37
-10.87
-13.52
-16.15
-18.55
-20.63
-22.45
-24.18
-26.15
-28.74
-32.33
-37.10
-42.94
-49.27
-55.06
-59.02
-59.89
-56.88
-50.01
-40.06
-28.39
-16.53
-5.74
3.25
10.21
15.26
18.66
20.67
21.54
21.57
21.10
20.48
20.05
19.99
20.29
20.80
21.29
21.63
21.79
21.92
22.29
23.24
24.96
27.38
30.23
33.00
35.19
36.41
36.53
35.65
34.02
31.86
29.38
26.64
23.62
20.35
16.92
13.54
10.45
7.83
5.77
4.26
3.22
2.56
2.22
2.20
2.46
2.94
3.52
4.06
4.35
4.16
3.21
1.29
-1.66
-5.47
-9.67
-13.53
-16.21
-17.00
-15.50
-11.78
-6.30
0.12
6.57
12.27
16.69
19.61
20.99
20.95
19.65
17.30
14.18
10.62
6.98
3.59
0.67
-1.60
-3.14
-3.89
-3.84
-3.04
-1.70
-0.13
1.32
2.36
2.89
2.93
2.61
2.01
1.18
0.06
-1.46
-3.46
-5.94
-8.82
-11.91
-14.97
-17.77
-20.14
-22.07
-23.71
-25.37
-27.38
-30.07
-33.57
-37.79
-42.36
-46.69
-49.96
-51.34
-50.20
-46.25
-39.76
-31.45
-22.39
-13.65
-6.01
0.11
4.69
7.94
10.03
11.10
11.17
10.33
8.71
6.65
4.58
2.87
1.80
1.44
1.65
2.23
2.98
3.73
4.48
5.23
5.99
6.70
7.21
7.34
6.96
6.01
4.50
2.49
0.02
-2.83
-5.99
-9.32
-12.70
-16.08
-19.54
-23.26
-27.49
-32.23
-37.22
-41.79
-44.97
-45.79
-43.53
-38.06
-29.86
-19.93
-9.50
0.27
8.62
15.16
19.87
22.93
24.61
25.25
25.20
24.84
24.41
24.01
23.57
22.99
22.21
21.34
20.57
20.12
20.09
20.37
20.74
20.95
20.81
20.23
19.18
17.68
15.74
13.40
10.68
7.64
4.27
0.54
-3.61
-8.14
-12.88
-17.55
-21.81
-25.44
-28.46
-31.11
-33.84
-37.07
-41.03
-45.60
-50.23
-53.99
-55.74
-54.50
-49.71
-41.49
-30.72
-18.78
-7.20
2.76
10.48
15.99
19.76
22.44
24.57
26.44
28.08
29.43
30.39
30.92
31.07
30.93
30.62
30.26
29.91
29.67
29.56
29.58
29.63
29.52
29.08
28.19
26.82
25.07
23.11
21.10
19.10
17.09
14.99
12.77
10.46
8.10
5.70
3.21
0.53
-2.44
-5.72
-9.23
-12.75
-16.08
-19.04
-21.61
-23.87
-26.05
-28.41
-31.23
-34.74
-39.08
-44.11
-49.36
-53.95
-56.74
-56.58
-52.76
-45.28
-34.92
-23.09
-11.33
-0.87
7.62
14.04
18.65
21.87
24.02
25.38
26.10
26.33
26.17
25.71
25.04
24.37
23.88
23.79
24.27
25.30
26.76
28.43
30.09
31.54
32.64
33.24
33.21
32.45
30.92
28.75
26.17
23.49
20.92
18.58
16.36
14.12
11.68
8.98
6.11
3.27
0.67
-1.58
-3.53
-5.38
-7.38
-9.74
-12.47
-15.43
-18.34
-20.91
-23.01
-24.68
-26.16
-27.80
-29.98
-32.99
-36.95
-41.65
-46.51
-50.58
-52.73
-51.90
-47.56
-39.85
-29.65
-18.32
-7.28
2.37
10.01
15.58
19.33
21.66
22.94
23.44
23.36
22.87
22.16
21.42
20.85
20.58
20.66
21.08
21.73
22.53
23.40
24.26
25.04
25.63
25.91
25.77
25.13
23.97
22.33
20.30
18.05
15.72
13.43
11.22
9.09
6.99
4.90
2.80
0.71
-1.38
-3.56
-5.88
-8.43
-11.15
-13.94
-16.65
-19.16
-21.51
-23.89
-26.52
-29.60
-33.10
-36.65
-39.54
-40.83
-39.70
-35.70
-28.98
-20.31
-10.83
-1.73
6.07
12.10
16.31
18.91
20.17
20.30
19.39
17.51
14.80
11.53
8.17
5.25
3.25
2.45
2.83
4.15
6.06
8.18
10.27
12.12
13.53
14.32
14.29
13.38
11.69
9.41
6.77
3.91
0.88
-2.34
-5.71
-9.10
-12.31
-15.17
-17.63
-19.91
-22.34
-25.38
-29.37
-34.36
-40.02
-45.62
-50.05
-52.17
-51.05
-46.34
-38.39
-28.22
-17.11
-6.32
3.22
11.02
16.98
21.21
23.92
25.33
25.64
25.06
23.84
22.19
20.34
18.45
16.70
15.24
14.18
13.59
13.48
13.74
14.21
14.65
14.82
14.53
13.69
12.34
10.49
8.18
5.38
2.11
-1.51
-5.24
-8.79
-11.94
-14.70
-17.29
-20.07
-23.39
-27.48
-32.30
-37.65
-43.18
-48.31
-52.29
-54.18
-53.11
-48.55
-40.59
-30.05
-18.29
-6.80
3.20
11.01
16.56
20.20
22.42
23.71
24.41
24.67
24.55
24.09
23.29
22.19
20.94
19.72
18.76
18.28
18.41
19.14
20.30
21.59
22.60
22.97
22.46
21.05
18.88
16.22
13.30
10.29
7.16
3.82
0.13
-3.96
-8.34
-12.81
-17.11
-21.05
-24.55
-27.70
-30.78
-34.16
-38.18
-42.93
-48.06
-52.68
-55.62
-55.66
-52.09
-44.93
-34.98
-23.59
-12.20
-1.98
6.39
12.74
17.32
20.61
23.16
25.48
27.89
30.49
33.20
35.80
38.04
39.70
40.64
40.85
40.39
39.47
38.37
37.37
36.66
36.22
35.88
35.36
34.38
32.80
30.61
27.88
24.72
21.21
17.49
13.76
10.27
7.28
4.88
2.97
1.23
-0.72
-3.18
-6.25
-9.72
-13.27
-16.61
-19.60
-22.33
-24.99
-27.77
-30.79
-34.07
-37.63
-41.39
-45.14
-48.36
-50.24
-49.83
-46.38
-39.69
-30.31
-19.40
-8.31
1.73
9.97
16.14
20.34
22.91
24.20
24.54
24.17
23.34
22.24
21.04
19.92
18.96
18.20
17.57
17.02
16.52
16.18
16.18
16.64
17.56
18.67
19.53
19.76
19.19
17.91
16.24
14.56
13.11
11.95
10.96
9.95
8.74
7.25
5.50
3.57
1.59
-0.31
-2.08
-3.78
-5.55
-7.55
-9.87
-12.46
-15.15
-17.70
-19.94
-21.79
-23.39
-24.96
-26.78
-29.10
-32.04
-35.52
-39.20
-42.48
-44.58
-44.69
-42.22
-37.04
-29.52
-20.49
-11.02
-2.08
5.58
11.62
15.97
18.74
20.10
20.27
19.47
17.98
16.07
14.00
11.99
10.22
8.86
8.08
8.03
8.78
10.29
12.39
14.80
17.13
18.99
20.08
20.19
19.32
17.59
15.30
12.75
10.16
7.65
5.22
2.79
0.29
-2.28
-4.85
-7.35
-9.66
-11.74
-13.54
-15.07
-16.41
-17.78
-19.50
-21.99
-25.51
-29.93
-34.62
-38.55
-40.55
-39.78
-35.96
-29.51
-21.31
-12.41
-3.72
4.13
10.85
16.28
20.38
23.12
24.52
24.64
23.67
21.81
19.34
16.59
13.95
11.78
10.38
9.89
10.21
11.05
12.02
12.76
13.05
12.88
12.32
11.45
10.30
8.74
6.66
3.96
0.74
-2.76
-6.23
-9.44
-12.28
-14.78
-17.14
-19.52
-22.08
-24.97
-28.25
-31.94
-35.85
-39.49
-42.14
-42.93
-41.18
-36.66
-29.73
-21.20
-12.10
-3.37
4.33
10.68
15.59
19.08
21.22
22.08
21.81
20.62
18.82
16.74
14.68
12.89
11.50
10.58
10.14
10.13
10.48
11.07
11.74
12.30
12.57
12.40
11.70
10.42
8.54
6.15
3.33
0.23
-3.01
-6.24
-9.35
-12.24
-14.87
-17.24
-19.42
-21.61
-24.11
-27.26
-31.31
-36.12
-41.07
-45.09
-46.98
-45.74
-41.06
-33.40
-23.84
-13.69
-4.08
4.25
11.03
16.23
20.00
22.49
23.90
24.46
24.46
24.18
23.80
23.41
23.00
22.53
21.99
21.44
21.00
20.81
20.94
21.36
21.93
22.43
22.61
22.25
21.24
19.60
17.43
14.91
12.20
9.45
6.72
3.97
1.13
-1.92
-5.20
-8.62
-12.02
-15.18
-17.94
-20.35
-22.62
-25.07
-28.09
-31.93
-36.66
-42.05
-47.51
-52.13
-54.89
-54.80
-51.28
-44.37
-34.81
-23.80
-12.74
-2.76
5.49
11.86
16.55
19.90
22.20
23.63
24.35
24.51
24.33
24.04
23.80
23.63
23.47
23.23
22.92
22.70
22.77
23.26
24.13
25.17
26.08
26.64
26.70
26.27
25.39
24.08
22.35
20.22
17.75
15.09
12.41
9.83
7.41
5.10
2.82
0.42
-2.21
-5.14
-8.34
-11.70
-15.03
-18.15
-20.96
-23.53
-25.98
-28.58
-31.64
-35.39
-39.90
-44.93
-49.81
-53.59
-55.18
-53.75
-48.98
-41.26
-31.56
-21.10
-11.04
-2.18
5.10
10.77
15.04
18.16
20.34
21.72
22.37
22.37
21.88
21.10
20.33
19.79
19.69
20.09
20.95
22.19
23.64
25.17
26.63
27.88
28.72
29.03
28.72
27.82
26.46
24.78
22.99
21.18
19.36
17.47
15.38
13.06
10.54
8.02
5.69
3.77
2.28
1.02
-0.33
-2.15
-4.63
-7.75
-11.18
-14.51
-17.34
-19.49
-21.06
-22.35
-23.76
-25.65
-28.27
-31.65
-35.60
-39.55
-42.72
-44.18
-43.08
-39.02
-32.16
-23.28
-13.47
-3.93
4.51
11.41
16.68
20.42
22.74
23.75
23.52
22.21
20.07
17.46
14.80
12.44
10.70
9.72
9.51
9.98
10.94
12.17
13.50
14.77
15.94
16.95
17.75
18.30
18.50
18.30
17.62
16.46
14.84
12.91
10.86
8.87
7.07
5.47
3.93
2.25
0.25
-2.13
-4.84
-7.70
-10.52
-13.19
-15.74
-18.28
-21.01
-24.11
-27.69
-31.74
-36.07
-40.20
-43.38
-44.75
-43.53
-39.33
-32.36
-23.41
-13.64
-4.27
3.80
10.11
14.62
17.59
19.33
20.08
20.01
19.24
17.93
16.28
14.55
13.00
11.79
10.99
10.59
10.56
10.90
11.64
12.77
14.16
15.55
16.61
17.02
16.56
15.23
13.21
10.78
8.18
5.60
3.09
0.60
-1.98
-4.74
-7.74
-10.92
-14.16
-17.30
-20.18
-22.75
-25.09
-27.42
-30.11
-33.49
-37.74
-42.61
-47.41
-51.07
-52.43
-50.63
-45.45
-37.38
-27.46
-16.93
-6.89
1.93
9.16
14.71
18.62
21.03
22.21
22.48
22.24
21.76
21.20
20.58
19.89
19.19
18.65
18.49
18.86
19.74
20.93
22.14
23.10
23.66
23.78
23.48
22.83
21.90
20.70
19.27
17.62
15.72
13.57
11.18
8.64
6.08
3.61
1.30
-0.88
-3.02
-5.24
-7.65
-10.31
-13.18
-16.17
-19.16
-22.08
-24.88
-27.68
-30.73
-34.30
-38.60
-43.54
-48.65
-53.04
-55.63
-55.45
-51.92
-45.08
-35.55
-24.42
-12.93
-2.20
6.96
14.20
19.49
23.09
25.37
26.65
27.19
27.22
26.91
26.42
25.94
25.55
25.31
25.17
25.12
25.13
25.26
25.58
26.15
26.97
27.94
28.81
29.30
29.16
28.28
26.74
24.77
22.60
20.40
18.21
15.95
13.54
10.97
8.37
5.84
3.51
1.33
-0.79
-3.04
-5.53
-8.32
-11.38
-14.53
-17.60
-20.41
-22.85
-24.97
-26.91
-29.03
-31.71
-35.32
-39.95
-45.25
-50.42
-54.31
-55.66
-53.63
-47.99
-39.24
-28.50
-17.10
-6.27
3.09
10.55
16.01
19.70
21.92
23.02
23.34
23.15
22.69
22.14
21.64
21.27
21.05
20.98
21.04
21.22
21.53
21.99
22.56
23.12
23.46
23.37
22.68
21.33
19.38
17.00
14.40
11.81
9.42
7.32
5.45
3.63
1.63
-0.75
-3.54
-6.63
-9.80
-12.80
-15.50
-17.94
-20.32
-22.96
-26.20
-30.23
-35.04
-40.24
-45.12
-48.63
-49.73
-47.64
-42.15
-33.74
-23.46
-12.60
-2.36
6.48
13.56
18.90
22.68
25.12
26.34
26.42
25.50
23.77
21.53
19.15
16.98
15.30
14.27
13.96
14.33
15.26
16.54
17.89
18.94
19.34
18.92
17.72
16.01
14.13
12.36
10.75
9.13
7.22
4.84
1.96
-1.26
-4.57
-7.76
-10.74
-13.56
-16.41
-19.54
-23.20
-27.55
-32.49
-37.58
-41.99
-44.63
-44.49
-40.96
-34.11
-24.72
-13.98
-3.23
6.47
14.45
20.40
24.33
26.37
26.75
25.80
23.88
21.39
18.64
15.88
13.27
10.95
9.09
7.87
7.44
7.82
8.88
10.37
12.04
13.58
14.77
15.34
15.09
13.82
11.48
8.27
4.54
0.80
-2.52
-5.22
-7.42
-9.47
-11.77
-14.66
-18.22
-22.41
-27.03
-31.73
-36.03
-39.22
-40.49
-39.12
-34.74
-27.58
-18.45
-8.52
1.03
9.30
15.88
20.68
23.84
25.54
25.92
25.17
23.50
21.20
18.60
16.01
13.71
11.92
10.74
10.15
10.01
10.08
10.10
9.87
9.32
8.49
7.38
5.96
4.11
1.73
-1.19
-4.51
-7.95
-11.30
-14.41
-17.35
-20.36
-23.76
-27.87
-32.86
-38.69
-44.90
-50.69
-54.97
-56.65
-54.95
-49.72
-41.48
-31.25
-20.25
-9.50
0.28
8.68
15.48
20.54
23.85
25.49
25.77
25.08
23.81
22.23
20.49
18.63
16.72
14.91
13.43
12.45
12.05
12.21
12.78
13.51
14.08
14.13
13.31
11.39
8.30
4.23
-0.41
-5.17
-9.65
-13.71
-17.49
-21.38
-25.87
-31.29
-37.71
-44.71
-51.37
-56.43
-58.57
-56.79
-50.77
-41.05
-28.87
-15.88
-3.59
6.96
15.31
21.55
26.06
29.19
31.15
32.00
31.72
30.40
28.28
25.76
23.30
21.29
19.94
19.29
19.27
19.72
20.47
21.30
21.99
22.28
21.97
20.97
19.27
16.97
14.21
11.11
7.79
4.38
1.02
-2.22
-5.28
-8.23
-11.16
-14.23
-17.63
-21.63
-26.52
-32.40
-39.02
-45.54
-50.58
-52.56
-50.30
-43.49
-32.91
-20.14
-6.99
5.03
15.12
23.14
29.29
33.84
36.95
38.74
39.45
39.49
39.41
39.65
40.36
41.35
42.27
42.75
42.66
42.14
41.53
41.16
41.17
41.45
41.64
41.36
40.30
38.41
35.85
32.97
30.00
27.04
23.95
20.47
16.36
11.56
6.21
0.60
-4.99
-10.32
-15.31
-19.96
-24.34
-28.58
-32.87
-37.38
-42.27
-47.50
-52.81
-57.60
-61.08
-62.41
-60.95
-56.49
-49.39
-40.45
-30.73
-21.22
-12.64
-5.34
0.60
5.31
8.94
11.64
13.62
15.04
16.06
16.75
17.12
17.15
16.89
16.58
16.53
17.06
18.33
20.27
22.55
24.79
26.60
27.79
28.31
28.25
27.68
26.67
25.23
23.35
21.11
18.62
16.03
13.44
10.89
8.33
5.71
3.00
0.20
-2.66
-5.63
-8.76
-12.13
-15.73
-19.46
-23.08
-26.39
-29.27
-31.84
-34.45
-37.56
-41.57
-46.56
-52.07
-57.15
-60.49
-60.82
-57.28
-49.80
-39.07
-26.39
-13.26
-0.98
9.55
17.93
24.12
28.29
30.71
31.69
31.59
30.77
29.58
28.32
27.19
26.35
25.88
25.78
26.02
26.52
27.16
27.88
28.67
29.52
30.38
31.07
31.40
31.18
30.34
28.93
27.10
25.00
22.70
20.15
17.30
14.14
10.78
7.43
4.28
1.41
-1.26
-3.92
-6.79
-9.96
-13.34
-16.70
-19.76
-22.40
-24.65
-26.73
-28.93
-31.57
-34.84
-38.70
-42.84
-46.59
-49.04
-49.22
-46.44
-40.50
-31.87
-21.57
-10.82
-0.74
7.90
14.75
19.77
23.10
24.95
25.51
25.00
23.68
21.79
19.62
17.46
15.59
14.24
13.59
13.72
14.56
15.99
17.78
19.70
21.52
22.97
23.81
23.81
22.84
20.96
18.40
15.51
12.66
10.06
7.67
5.29
2.61
-0.56
-4.17
-7.97
-11.59
-14.76
-17.36
-19.55
-21.62
-23.84
-26.43
-29.40
-32.69
-36.13
-39.44
-42.14
-43.52
-42.75
-39.16
-32.53
-23.29
-12.44
-1.28
8.97
17.51
24.03
28.61
31.50
32.98
33.24
32.37
30.54
27.90
24.74
21.37
18.11
15.25
12.97
11.41
10.56
10.40
10.76
11.44
12.17
12.68
12.74
12.19
10.99
9.19
6.90
4.27
1.45
-1.48
-4.45
-7.48
-10.59
-13.86
-17.32
-20.99
-24.92
-29.14
-33.77
-38.87
-44.31
-49.63
-53.95
-56.20
-55.34
-50.87
-43.00
-32.61
-20.98
-9.32
1.44
10.80
18.55
24.63
28.97
31.57
32.50
32.00
30.40
28.08
25.35
22.47
19.66
17.11
14.99
13.45
12.61
12.49
12.98
13.84
14.75
15.41
15.53
15.01
13.86
12.19
10.14
7.79
5.13
2.13
-1.20
-4.75
-8.38
-11.92
-15.29
-18.50
-21.69
-24.98
-28.63
-32.80
-37.60
-42.90
-48.24
-52.74
-55.24
-54.63
-50.26
-42.22
-31.37
-19.12
-6.98
3.86
12.71
19.38
24.01
26.88
28.23
28.30
27.34
25.72
23.83
22.10
20.88
20.27
20.18
20.43
20.77
21.10
21.43
21.88
22.52
23.33
24.13
24.61
24.48
23.50
21.62
18.95
15.76
12.39
9.15
6.28
3.82
1.67
-0.42
-2.73
-5.47
-8.68
-12.29
-16.09
-19.84
-23.39
-26.70
-29.84
-33.00
-36.41
-40.34
-44.87
-49.78
-54.43
-57.80
-58.68
-56.10
-49.71
-39.96
-28.00
-15.27
-3.13
7.54
16.35
23.26
28.37
31.79
33.60
33.92
33.06
31.44
29.54
27.76
26.30
25.15
24.20
23.31
22.45
21.70
21.18
20.99
21.11
21.38
21.57
21.48
21.05
20.27
19.24
18.05
16.70
15.18
13.45
11.53
9.50
7.50
5.61
3.79
1.81
-0.61
-3.76
-7.75
-12.39
-17.32
-22.05
-26.23
-29.69
-32.56
-35.18
-37.99
-41.43
-45.75
-50.90
-56.35
-61.11
-63.88
-63.36
-58.73
-50.01
-38.13
-24.70
-11.51
-0.02
8.92
15.11
18.80
20.41
20.38
19.06
16.78
13.83
10.51
7.05
3.61
0.29
-2.84
-5.70
-8.20
-10.29
-12.02
-13.52
-15.01
-16.77
-19.10
-22.23
-26.31
-31.38
-37.34
-44.05
-51.28
-58.88
-66.75
-74.86
-83.26
-91.92
-100.63
-109.02
-116.54
-122.53
-126.32
-127.17
-124.46
-117.63
-106.41
-90.85
-71.39
-48.91
-24.69
-0.23
22.85
43.02
59.11
70.54
77.48
80.92
82.36
83.41
85.36
88.81
93.64
99.14
104.42
108.66
111.33
112.21
111.28
108.60
104.33
98.70
92.07
84.88
77.51
70.29
63.42
57.04
51.28
46.24
42.05
38.78
36.33
34.47
32.92
31.38
29.72
27.96
26.19
24.53
22.92
21.23
19.22
16.78
13.93
10.79
7.49
4.07
0.46
-3.44
-7.57
-11.72
-15.55
-18.86
-21.66
-24.24
-27.10
-30.65
-35.08
-40.22
-45.47
-49.91
-52.48
-52.19
-48.42
-41.13
-30.96
-19.07
-6.84
4.51
14.16
21.80
27.49
31.44
33.84
34.81
34.48
33.01
30.73
27.98
25.15
22.50
20.18
18.26
16.76
15.73
15.19
15.13
15.48
16.05
16.57
16.76
16.37
15.29
13.55
11.31
8.86
6.44
4.25
2.35
0.60
-1.18
-3.27
-5.87
-9.01
-12.58
-16.29
-19.81
-22.82
-25.22
-27.13
-28.88
-31.00
-33.95
-38.05
-43.19
-48.75
-53.67
-56.63
-56.46
-52.47
-44.75
-34.10
-21.82
-9.38
2.04
11.65
19.10
24.40
27.71
29.26
29.33
28.24
26.35
24.08
21.80
19.78
18.15
16.91
16.01
15.41
15.18
15.43
16.25
17.55
19.07
20.39
21.05
20.76
19.48
17.41
14.88
12.20
9.61
7.13
4.73
2.24
-0.46
-3.46
-6.73
-10.11
-13.37
-16.36
-18.99
-21.42
-23.94
-26.93
-30.66
-35.12
-39.90
-44.23
-47.07
-47.43
-44.66
-38.65
-29.94
-19.54
-8.69
1.46
10.11
16.88
21.77
24.96
26.67
27.07
26.32
24.56
21.99
18.91
15.63
12.50
9.83
7.84
6.70
6.47
7.09
8.35
9.93
11.45
12.59
13.15
13.09
12.49
11.44
10.01
8.16
5.85
3.01
-0.35
-4.13
-8.16
-12.22
-16.14
-19.88
-23.51
-27.24
-31.32
-35.90
-40.96
-46.13
-50.66
-53.59
-53.91
-50.88
-44.33
-34.78
-23.35
-11.41
-0.29
9.11
16.35
21.47
24.73
26.47
26.97
26.49
25.23
23.41
21.28
19.08
17.00
15.24
13.91
13.14
12.99
13.45
14.38
15.53
16.57
17.20
17.24
16.66
15.56
14.07
12.23
10.03
7.38
4.22
0.62
-3.25
-7.17
-10.97
-14.57
-17.98
-21.30
-24.65
-28.23
-32.34
-37.25
-43.03
-49.37
-55.41
-59.86
-61.34
-58.82
-52.05
-41.66
-28.95
-15.55
-2.92
7.94
16.59
22.98
27.32
29.89
30.95
30.83
29.84
28.34
26.69
25.14
23.83
22.83
22.14
21.78
21.78
22.19
23.02
24.21
25.52
26.64
27.23
27.01
25.88
23.98
21.60
19.07
16.64
14.37
12.13
9.67
6.78
3.31
-0.70
-5.08
-9.57
-13.92
-17.94
-21.64
-25.16
-28.80
-32.93
-37.85
-43.63
-49.91
-55.91
-60.39
-62.05
-59.84
-53.44
-43.38
-31.02
-18.02
-5.92
4.28
12.25
18.16
22.39
25.27
27.03
27.81
27.83
27.36
26.71
26.10
25.61
25.16
24.61
23.95
23.28
22.85
22.90
23.53
24.64
25.91
26.97
27.52
27.36
26.42
24.74
22.37
19.39
16.01
12.48
9.11
6.15
3.69
1.52
-0.72
-3.42
-6.82
-10.85
-15.19
-19.43
-23.29
-26.68
-29.82
-33.05
-36.74
-41.17
-46.42
-52.30
-58.24
-63.22
-65.96
-65.16
-60.00
-50.48
-37.58
-22.95
-8.48
4.30
14.55
22.16
27.52
31.15
33.55
35.02
35.73
35.81
35.40
34.62
33.65
32.61
31.60
30.74
30.16
29.95
30.21
30.94
32.02
33.22
34.23
34.69
34.33
33.08
31.10
28.74
26.40
24.31
22.54
20.93
19.22
17.17
14.72
11.92
9.01
6.11
3.25
0.33
-2.88
-6.54
-10.62
-14.97
-19.28
-23.31
-26.90
-30.08
-32.97
-35.81
-38.88
-42.50
-46.97
-52.31
-58.10
-63.31
-66.48
-66.13
-61.33
-52.12
-39.53
-25.26
-11.10
1.55
11.91
19.80
25.45
29.21
31.47
32.58
32.79
32.35
31.44
30.33
29.23
28.40
27.95
27.90
28.17
28.69
29.47
30.59
32.14
34.06
36.08
37.74
38.60
38.36
37.04
34.86
32.23
29.49
26.91
24.54
22.31
20.04
17.51
14.57
11.21
7.63
4.09
0.93
-1.69
-3.86
-5.90
-8.23
-11.17
-14.79
-18.88
-23.03
-26.80
-29.92
-32.45
-34.72
-37.24
-40.53
-44.91
-50.26
-55.99
-61.01
-63.99
-63.69
-59.36
-50.97
-39.33
-25.81
-12.02
0.67
11.31
19.56
25.39
29.12
31.09
31.63
31.13
29.94
28.42
26.88
25.54
24.49
23.72
23.17
22.81
22.68
22.88
23.54
24.62
25.99
27.29
28.16
28.30
27.61
26.17
24.23
22.02
19.70
17.40
15.12
12.89
10.73
8.64
6.63
4.67
2.72
0.76
-1.23
-3.25
-5.39
-7.73
-10.37
-13.30
-16.42
-19.52
-22.43
-25.13
-27.81
-30.82
-34.49
-39.00
-44.09
-49.09
-52.93
-54.43
-52.67
-47.24
-38.48
-27.33
-15.11
-3.17
7.45
16.08
22.44
26.50
28.43
28.46
26.96
24.32
20.97
17.34
13.79
10.67
8.24
6.72
6.17
6.56
7.74
9.50
11.58
13.71
15.57
16.85
17.27
16.66
15.07
12.73
9.99
7.29
4.93
3.00
1.36
-0.31
-2.37
-5.03
-8.31
-11.98
-15.70
-19.21
-22.43
-25.46
-28.60
-32.19
-36.41
-41.21
-46.17
-50.44
-52.91
-52.53
-48.56
-40.94
-30.33
-17.96
-5.25
6.56
16.60
24.47
30.09
33.52
34.86
34.32
32.26
29.17
25.60
22.04
18.83
16.15
14.12
12.83
12.41
12.88
14.12
15.80
17.45
18.61
18.97
18.49
17.29
15.54
13.36
10.73
7.56
3.76
-0.64
-5.49
-10.47
-15.25
-19.54
-23.25
-26.44
-29.38
-32.41
-35.89
-40.13
-45.21
-50.91
-56.54
-61.03
-63.04
-61.38
-55.44
-45.47
-32.60
-18.52
-5.02
6.57
15.58
22.00
26.21
28.78
30.17
30.66
30.44
29.57
28.11
26.16
23.84
21.34
18.91
16.83
15.40
14.81
15.09
16.05
17.33
18.52
19.21
19.14
18.26
16.66
14.48
11.87
8.92
5.58
1.82
-2.44
-7.13
-12.10
-17.06
-21.73
-25.96
-29.78
-33.53
-37.74
-42.88
-49.08
-55.87
-62.12
-66.28
-66.81
-62.77
-54.14
-41.86
-27.55
-12.91
0.64
12.23
21.44
28.22
32.65
34.94
35.44
34.63
33.11
31.37
29.76
28.35
27.02
25.65
24.22
22.92
22.07
21.97
22.73
24.20
25.94
27.38
28.02
27.61
26.19
24.00
21.36
18.42
15.21
11.65
7.64
3.20
-1.50
-6.24
-10.81
-15.11
-19.16
-23.07
-27.04
-31.33
-36.20
-41.90
-48.34
-54.97
-60.73
-64.24
-64.17
-59.78
-51.17
-39.29
-25.63
-11.78
0.95
11.73
20.22
26.41
30.52
32.89
33.92
34.00
33.42
32.39
31.01
29.43
27.86
26.64
26.05
26.23
27.08
28.32
29.61
30.66
31.36
31.69
31.64
31.15
30.08
28.34
25.96
23.12
20.07
17.05
14.19
11.46
8.73
5.86
2.74
-0.66
-4.34
-8.23
-12.24
-16.25
-20.14
-23.76
-27.03
-30.01
-32.90
-36.07
-39.94
-44.88
-50.97
-57.81
-64.39
-69.24
-70.77
-67.80
-60.01
-48.09
-33.59
-18.46
-4.42
7.44
16.73
23.61
28.48
31.76
33.73
34.62
34.64
34.09
33.27
32.49
31.93
31.67
31.68
31.87
32.21
32.71
33.48
34.61
36.09
37.74
39.16
39.91
39.60
38.13
35.67
32.63
29.49
26.52
23.84
21.26
18.52
15.39
11.83
8.01
4.31
1.10
-1.41
-3.28
-4.91
-6.82
-9.50
-13.17
-17.70
-22.66
-27.49
-31.74
-35.25
-38.10
-40.63
-43.26
-46.42
-50.38
-55.19
-60.52
-65.58
-69.17
-69.94
-66.75
-59.16
-47.61
-33.35
-18.10
-3.53
9.13
19.22
26.57
31.32
33.72
34.13
33.01
30.88
28.36
26.02
24.23
23.19
22.93
23.31
24.16
25.29
26.57
27.95
29.46
31.09
32.77
34.24
35.08
34.89
33.45
30.79
27.20
23.22
19.34
15.94
13.13
10.80
8.72
6.64
4.43
2.05
-0.43
-2.95
-5.50
-8.18
-11.12
-14.41
-18.00
-21.75
-25.49
-29.11
-32.63
-36.09
-39.57
-43.16
-46.94
-51.03
-55.52
-60.24
-64.63
-67.63
-67.94
-64.37
-56.43
-44.54
-30.00
-14.63
-0.16
12.18
21.85
28.91
33.70
36.63
38.03
38.16
37.27
35.74
34.00
32.47
31.44
31.00
30.98
31.15
31.30
31.41
31.65
32.27
33.44
35.08
36.84
38.24
38.83
38.36
36.89
34.72
32.23
29.70
27.26
24.79
22.09
18.97
15.36
11.39
7.31
3.40
-0.10
-3.11
-5.74
-8.23
-10.90
-13.97
-17.49
-21.30
-25.09
-28.48
-31.29
-33.57
-35.60
-37.80
-40.56
-44.17
-48.70
-53.93
-59.30
-63.80
-66.15
-65.04
-59.65
-50.01
-37.11
-22.61
-8.30
4.41
14.82
22.80
28.58
32.39
34.40
34.70
33.47
31.11
28.14
25.14
22.63
20.91
20.10
20.16
20.96
22.37
24.28
26.55
28.98
31.26
33.01
33.89
33.73
32.59
30.76
28.60
26.38
24.23
22.12
19.87
17.30
14.32
10.97
7.38
3.78
0.35
-2.82
-5.81
-8.81
-12.04
-15.56
-19.27
-22.88
-26.10
-28.76
-30.96
-33.05
-35.48
-38.55
-42.24
-46.06
-49.08
-50.21
-48.48
-43.42
-35.23
-24.76
-13.23
-1.88
8.31
16.75
23.17
27.47
29.63
29.71
27.96
24.83
21.00
17.18
13.95
11.63
10.21
9.52
9.34
9.49
9.91
10.63
11.65
12.88
14.11
15.01
15.27
14.66
13.17
10.96
8.31
5.45
2.53
-0.46
-3.63
-7.07
-10.79
-14.65
-18.45
-21.98
-25.13
-27.98
-30.70
-33.55
-36.81
-40.64
-45.09
-49.96
-54.70
-58.46
-60.21
-58.96
-54.14
-45.77
-34.63
-21.96
-9.16
2.56
12.45
20.18
25.73
29.24
30.89
30.86
29.37
26.71
23.22
19.32
15.44
12.02
9.48
8.14
8.14
9.41
11.57
14.10
16.43
18.08
18.77
18.51
17.41
15.68
13.41
10.65
7.34
3.46
-0.90
-5.60
-10.38
-15.04
-19.46
-23.62
-27.59
-31.51
-35.59
-40.06
-45.12
-50.77
-56.63
-61.79
-64.92
-64.71
-60.31
-51.74
-39.94
-26.49
-13.11
-1.13
8.72
16.35
21.97
25.89
28.37
29.61
29.79
29.16
28.01
26.61
25.19
23.89
22.78
21.91
21.32
21.02
21.02
21.23
21.56
21.84
21.92
21.59
20.76
19.38
17.50
15.23
12.68
9.85
6.73
3.22
-0.70
-4.96
-9.39
-13.76
-17.89
-21.75
-25.54
-29.63
-34.50
-40.47
-47.45
-54.82
-61.32
-65.43
-65.73
-61.44
-52.68
-40.48
-26.47
-12.37
0.41
11.03
19.28
25.35
29.66
32.67
34.76
36.20
37.12
37.56
37.49
36.95
36.05
34.95
33.89
33.08
32.63
32.56
32.83
33.34
33.96
34.53
34.88
34.77
34.00
32.45
30.11
27.11
23.76
20.35
17.11
14.15
11.37
8.50
5.24
1.34
-3.26
-8.38
-13.75
-19.01
-23.93
-28.37
-32.41
-36.21
-40.03
-44.19
-49.03
-54.74
-61.09
-67.34
-72.20
-74.13
-71.79
-64.59
-52.95
-38.24
-22.35
-7.17
5.94
16.34
24.07
29.57
33.35
35.83
37.24
37.73
37.43
36.53
35.35
34.19
33.32
32.85
32.84
33.26
34.10
35.31
36.78
38.32
39.64
40.41
40.35
39.33
37.41
34.79
31.82
28.84
26.16
23.91
22.02
20.21
18.09
15.29
11.70
7.52
3.18
-0.83
-4.28
-7.27
-10.19
-13.49
-17.44
-21.91
-26.47
-30.60
-33.97
-36.56
-38.67
-40.80
-43.41
-46.85
-51.21
-56.20
-61.09
-64.74
-65.73
-62.85
-55.49
-43.99
-29.66
-14.34
0.09
12.27
21.70
28.50
33.18
36.24
37.95
38.42
37.77
36.26
34.33
32.50
31.21
30.63
30.70
31.24
32.01
32.91
33.97
35.19
36.47
37.54
38.04
37.66
36.26
33.94
31.05
27.96
25.00
22.35
19.98
17.74
15.45
12.96
10.21
7.29
4.39
1.75
-0.40
-2.07
-3.44
-4.88
-6.76
-9.23
-12.20
-15.33
-18.22
-20.62
-22.53
-24.22
-26.13
-28.69
-32.21
-36.70
-41.72
-46.30
-49.12
-48.77
-44.18
-35.10
-22.18
-6.92
8.75
22.98
34.38
42.21
46.35
47.26
45.67
42.47
38.42
34.12
29.85
25.74
21.80
18.13
14.91
12.36
10.63
9.70
9.37
9.29
9.11
8.54
7.35
5.44
2.73
-0.80
-5.12
-10.15
-15.64
-21.26
-26.65
-31.47
-35.56
-39.02
-42.13
-45.24
-48.60
-52.22
-55.84
-59.13
-61.81
-63.84
-65.47
-67.07
-68.95
-71.22
-73.82
-76.62
-79.57
-82.68
-85.89
-88.86
-90.79
-90.52
-86.87
-78.95
-66.53
-50.07
-30.56
-9.20
12.89
34.78
55.69
74.87
91.61
105.33
115.73
122.95
127.50
130.05
131.11
130.91
129.34
126.17
121.34
115.12
108.13
101.20
95.07
90.20
86.69
84.32
82.76
81.65
80.69
79.62
78.09
75.74
72.23
67.51
61.85
55.89
50.33
45.67
42.04
39.23
36.91
34.81
32.87
31.13
29.62
28.18
26.41
23.88
20.25
15.48
9.89
4.04
-1.45
-6.13
-9.88
-13.00
-16.08
-19.78
-24.51
-30.15
-36.02
-41.04
-44.06
-44.24
-41.35
-35.82
-28.61
-20.92
-13.88
-8.37
-4.98
-3.98
-5.36
-8.86
-14.03
-20.26
-26.87
-33.23
-38.87
-43.51
-47.03
-49.47
-50.96
-51.68
-51.76
-51.34
-50.48
-49.24
-47.68
-45.90
-44.03
-42.29
-40.83
-39.77
-39.05
-38.47
-37.80
-36.83
-35.56
-34.17
-32.98
-32.26
-32.10
-32.38
-32.76
-32.98
-32.96
-32.88
-33.09
-33.89
-35.33
-37.23
-39.15
-40.65
-41.50
-41.79
-41.93
-42.52
-44.21
-47.46
-52.32
-58.28
-64.23
-68.63
-69.86
-66.71
-58.73
-46.53
-31.57
-15.80
-1.16
10.87
19.43
24.36
26.03
25.17
22.66
19.39
16.09
13.26
11.13
9.76
9.16
9.34
10.35
12.12
14.44
16.95
19.28
21.20
22.69
23.89
24.89
25.62
25.81
25.16
23.50
20.98
18.04
15.19
12.79
10.86
9.09
7.07
4.42
1.09
-2.70
-6.52
-9.95
-12.77
-14.98
-16.83
-18.71
-20.98
-23.97
-27.82
-32.45
-37.40
-41.88
-44.82
-45.18
-42.20
-35.77
-26.44
-15.32
-3.72
7.23
16.73
24.43
30.24
34.21
36.39
36.84
35.64
33.01
29.32
25.08
20.87
17.25
14.69
13.46
13.57
14.79
16.70
18.75
20.40
21.25
21.08
19.86
17.73
14.91
11.65
8.12
4.45
0.74
-2.93
-6.51
-10.00
-13.42
-16.83
-20.26
-23.72
-27.16
-30.50
-33.74
-37.03
-40.64
-44.80
-49.44
-54.00
-57.43
-58.45
-55.98
-49.59
-39.73
-27.60
-14.78
-2.68
7.75
16.14
22.52
27.02
29.76
30.83
30.33
28.51
25.78
22.60
19.48
16.79
14.79
13.59
13.19
13.54
14.52
15.97
17.60
19.08
20.04
20.14
19.25
17.41
14.88
11.98
9.00
6.07
3.14
0.05
-3.41
-7.29
-11.55
-15.93
-20.12
-23.93
-27.31
-30.40
-33.55
-37.12
-41.46
-46.72
-52.70
-58.77
-63.85
-66.59
-65.68
-60.39
-50.82
-38.06
-23.81
-9.91
2.26
12.02
19.40
24.78
28.57
31.02
32.26
32.38
31.59
30.24
28.67
27.23
26.11
25.42
25.24
25.62
26.59
28.08
29.94
31.93
33.75
35.11
35.74
35.43
34.09
31.72
28.51
24.78
20.90
17.16
13.69
10.46
7.32
4.07
0.57
-3.24
-7.31
-11.58
-15.94
-20.25
-24.35
-28.15
-31.64
-34.94
-38.30
-42.10
-46.69
-52.24
-58.52
-64.75
-69.66
-71.77
-69.87
-63.43
-52.83
-39.28
-24.41
-9.88
3.07
13.75
21.96
27.88
31.88
34.41
35.89
36.69
37.04
37.04
36.77
36.30
35.77
35.32
35.13
35.35
36.00
37.01
38.22
39.41
40.34
40.79
40.61
39.75
38.26
36.29
34.00
31.59
29.23
26.99
24.86
22.74
20.41
17.64
14.33
10.51
6.46
2.58
-0.73
-3.28
-5.12
-6.61
-8.27
-10.54
-13.68
-17.58
-21.95
-26.34
-30.32
-33.69
-36.43
-38.84
-41.44
-44.84
-49.53
-55.57
-62.38
-68.66
-72.69
-72.83
-68.05
-58.36
-44.82
-29.18
-13.43
0.84
12.59
21.47
27.67
31.60
33.77
34.68
34.73
34.20
33.36
32.40
31.49
30.78
30.33
30.16
30.26
30.59
31.19
32.07
33.27
34.73
36.27
37.61
38.43
38.49
37.70
36.15
34.05
31.63
29.06
26.44
23.77
21.04
18.22
15.27
12.14
8.84
5.43
2.08
-1.01
-3.71
-5.98
-7.99
-10.01
-12.31
-15.01
-18.07
-21.27
-24.32
-26.96
-29.10
-30.81
-32.43
-34.46
-37.40
-41.60
-47.02
-53.13
-58.84
-62.76
-63.50
-60.15
-52.55
-41.37
-27.97
-13.93
-0.68
10.81
20.09
27.06
31.85
34.66
35.73
35.33
33.87
31.78
29.56
27.66
26.47
26.19
26.84
28.19
29.89
31.62
33.18
34.53
35.71
36.70
37.33
37.27
36.24
34.14
31.19
27.81
24.46
21.48
18.95
16.79
14.79
12.83
10.77
8.58
6.22
3.74
1.26
-1.07
-3.13
-4.93
-6.61
-8.43
-10.58
-13.08
-15.79
-18.45
-20.81
-22.78
-24.45
-26.02
-27.82
-30.12
-33.13
-36.81
-40.79
-44.32
-46.41
-46.06
-42.64
-36.10
-27.05
-16.53
-5.77
4.21
12.70
19.36
24.12
26.98
28.01
27.35
25.24
22.11
18.58
15.27
12.72
11.21
10.75
11.15
12.13
13.50
15.18
17.08
19.05
20.84
22.14
22.69
22.39
21.26
19.46
17.08
14.26
11.11
7.86
4.75
2.02
-0.24
-2.13
-3.94
-5.97
-8.38
-11.17
-14.12
-16.97
-19.54
-21.82
-23.96
-26.20
-28.82
-32.01
-35.88
-40.27
-44.74
-48.52
-50.60
-50.02
-46.15
-38.99
-29.14
-17.76
-6.19
4.40
13.25
20.01
24.72
27.56
28.78
28.56
27.11
24.68
21.56
18.10
14.71
11.78
9.67
8.66
8.85
10.16
12.31
14.91
17.54
19.79
21.37
22.08
21.79
20.52
18.45
15.87
13.09
10.32
7.59
4.75
1.59
-2.05
-6.11
-10.37
-14.53
-18.34
-21.71
-24.78
-27.88
-31.45
-35.82
-41.10
-47.00
-52.78
-57.38
-59.63
-58.66
-54.07
-46.13
-35.66
-23.79
-11.77
-0.64
8.84
16.29
21.65
25.10
26.93
27.51
27.15
26.13
24.67
22.93
21.13
19.40
17.90
16.78
16.22
16.31
17.10
18.51
20.28
22.04
23.38
23.91
23.42
21.89
19.51
16.57
13.45
10.42
7.61
4.87
1.97
-1.38
-5.27
-9.57
-13.95
-17.99
-21.45
-24.29
-26.77
-29.28
-32.27
-36.06
-40.65
-45.64
-50.27
-53.51
-54.28
-51.82
-45.92
-36.99
-26.07
-14.45
-3.43
6.07
13.60
19.16
23.00
25.47
26.82
27.19
26.70
25.48
23.82
22.06
20.59
19.62
19.26
19.40
19.93
20.74
21.76
22.97
24.31
25.65
26.70
27.17
26.79
25.44
23.22
20.35
17.14
13.85
10.68
7.73
4.95
2.23
-0.62
-3.78
-7.41
-11.50
-15.88
-20.27
-24.32
-27.84
-30.80
-33.40
-36.04
-39.17
-43.14
-48.13
-53.91
-59.76
-64.55
-66.95
-65.79
-60.52
-51.41
-39.55
-26.50
-13.89
-2.92
5.84
12.32
16.83
19.74
21.37
21.96
21.73
20.92
19.76
18.45
17.09
15.69
14.24
12.81
11.49
10.44
9.68
9.07
8.38
7.27
5.52
3.03
-0.17
-4.02
-8.47
-13.57
-19.34
-25.76
-32.68
-39.94
-47.40
-55.03
-62.87
-71.02
-79.55
-88.45
-97.59
-106.76
-115.63
-123.77
-130.58
-135.25
-136.87
-134.56
-127.74
-116.31
-100.75
-82.06
-61.56
-40.61
-20.27
-1.09
16.92
34.10
50.86
67.29
83.07
97.48
109.66
118.92
124.92
127.79
127.98
126.04
122.56
118.00
112.70
106.93
100.87
94.75
88.78
83.29
78.50
74.52
71.30
68.68
66.44
64.41
62.52
60.71
58.87
56.78
54.17
50.87
46.88
42.49
38.06
33.94
30.25
26.83
23.39
19.70
15.66
11.42
7.25
3.42
0.10
-2.73
-5.29
-7.86
-10.68
-13.84
-17.23
-20.61
-23.65
-26.20
-28.28
-30.20
-32.36
-35.23
-39.04
-43.62
-48.35
-52.15
-53.77
-52.10
-46.66
-37.72
-26.33
-13.95
-2.05
8.23
16.32
22.06
25.64
27.39
27.65
26.76
25.04
22.77
20.27
17.86
15.88
14.65
14.37
15.09
16.65
18.74
20.99
23.08
24.82
26.05
26.70
26.66
25.81
24.11
21.61
18.53
15.20
11.95
8.99
6.36
3.89
1.32
-1.54
-4.76
-8.20
-11.59
-14.66
-17.22
-19.23
-20.86
-22.42
-24.31
-26.92
-30.51
-35.04
-40.08
-44.75
-47.90
-48.36
-45.40
-38.91
-29.55
-18.45
-6.93
3.91
13.32
20.94
26.62
30.37
32.22
32.34
31.08
28.93
26.43
24.09
22.20
20.93
20.31
20.32
20.87
21.88
23.21
24.67
26.11
27.35
28.23
28.57
28.22
27.01
24.86
21.88
18.29
14.43
10.63
7.04
3.62
0.20
-3.40
-7.22
-11.15
-14.96
-18.43
-21.48
-24.19
-26.76
-29.47
-32.59
-36.35
-40.89
-46.12
-51.61
-56.57
-59.89
-60.46
-57.51
-50.94
-41.37
-30.02
-18.28
-7.30
2.21
10.03
16.25
21.02
24.43
26.51
27.29
26.87
25.47
23.41
21.09
18.87
17.13
16.12
16.01
16.76
18.17
19.93
21.69
23.11
23.97
24.10
23.42
21.97
19.97
17.72
15.52
13.55
11.73
9.72
7.12
3.67
-0.61
-5.38
-10.14
-14.42
-18.00
-20.93
-23.43
-25.78
-28.23
-30.95
-34.08
-37.78
-42.07
-46.68
-50.91
-53.60
-53.47
-49.55
-41.56
-30.19
-16.85
-3.26
9.03
19.04
26.40
31.18
33.60
33.89
32.30
29.24
25.40
21.64
18.75
17.12
16.58
16.47
16.03
14.79
12.84
10.74
9.16
8.51
8.71
9.31
9.76
9.74
9.35
8.94
8.88
9.23
9.76
10.03
9.66
8.57
6.95
5.14
3.43
1.93
0.51
-1.06
-2.88
-4.92
-6.98
-8.90
-10.66
-12.47
-14.60
-17.23
-20.31
-23.56
-26.66
-29.32
-31.55
-33.62
-35.96
-39.01
-42.97
-47.67
-52.38
-56.01
-57.24
-55.00
-48.77
-38.91
-26.49
-13.02
-0.02
11.40
20.60
27.45
32.06
34.71
35.69
35.34
34.01
32.10
30.05
28.25
26.95
26.28
26.21
26.64
27.45
28.56
29.98
31.68
33.58
35.49
37.07
37.94
37.79
36.43
33.93
30.58
26.83
23.15
19.94
17.28
15.05
12.94
10.61
7.88
4.78
1.45
-1.87
-4.99
-7.81
-10.34
-12.64
-14.87
-17.22
-19.87
-22.97
-26.48
-30.18
-33.73
-36.78
-39.15
-41.03
-42.89
-45.36
-48.91
-53.55
-58.66
-63.01
-65.18
-63.92
-58.66
-49.64
-37.83
-24.66
-11.54
0.36
10.32
18.04
23.51
26.94
28.67
29.12
28.73
27.90
26.93
26.04
25.34
24.96
25.00
25.52
26.54
27.99
29.76
31.65
33.46
34.98
36.00
36.34
35.87
34.53
32.38
29.59
26.42
23.19
20.19
17.57
15.28
13.15
10.91
8.43
5.77
3.19
0.98
-0.66
-1.77
-2.61
-3.55
-4.91
-6.83
-9.27
-11.99
-14.73
-17.30
-19.62
-21.76
-23.93
-26.45
-29.69
-33.83
-38.79
-44.02
-48.54
-51.11
-50.61
-46.41
-38.59
-27.97
-15.81
-3.54
7.68
17.07
24.28
29.25
32.16
33.28
32.91
31.46
29.34
26.97
24.73
22.94
21.78
21.31
21.45
22.03
22.87
23.81
24.80
25.80
26.78
27.58
27.96
27.66
26.52
24.60
22.13
19.44
16.76
14.14
11.50
8.66
5.61
2.45
-0.58
-3.22
-5.35
-7.04
-8.53
-10.07
-11.82
-13.77
-15.82
-17.76
-19.45
-20.85
-22.02
-23.11
-24.35
-25.97
-28.18
-31.06
-34.42
-37.69
-39.98
-40.24
-37.59
-31.78
-23.28
-13.26
-3.14
5.85
13.02
18.31
22.07
24.70
26.41
27.14
26.73
25.15
22.62
19.63
16.78
14.51
13.01
12.28
12.17
12.57
13.41
14.63
16.10
17.56
18.68
19.23
19.10
18.39
17.31
16.03
14.65
13.15
11.46
9.54
7.43
5.24
3.10
1.10
-0.75
-2.49
-4.18
-5.84
-7.49
-9.15
-10.83
-12.56
-14.35
-16.09
-17.71
-19.12
-20.36
-21.61
-23.17
-25.29
-28.09
-31.31
-34.40
-36.52
-36.89
-34.92
-30.45
-23.81
-15.71
-7.05
1.28
8.60
14.53
18.88
21.66
22.93
22.80
21.44
19.13
16.25
13.24
10.54
8.50
7.28
6.82
6.90
7.16
7.24
6.92
6.10
4.84
3.30
1.63
-0.04
-1.73
-3.50
-5.45
-7.65
-10.02
-12.31
-14.22
-15.48
-15.99
-15.87
-15.39
-14.83
-14.35
-13.90
-13.36
-12.65
-11.88
-11.30
-11.18
-11.72
-12.87
-14.41
-15.99
-17.22
-17.71
-17.15
-15.27
-11.97
-7.41
-2.00
3.67
8.96
13.40
16.73
18.92
20.07
20.29
19.68
18.29
16.26
13.75
10.99
8.19
5.56
3.26
1.47
0.37
0.05
0.52
1.60
3.00
4.33
5.30
5.73
5.62
5.05
4.16
3.05
1.80
0.46
-1.01
-2.64
-4.48
-6.53
-8.71
-10.89
-12.95
-14.82
-16.53
-18.18
-19.90
-21.82
-24.02
-26.48
-29.09
-31.58
-33.48
-34.25
-33.29
-30.24
-25.09
-18.24
-10.41
-2.42
5.04
11.45
16.51
20.09
22.15
22.79
22.19
20.68
18.58
16.19
13.73
11.37
9.31
7.80
7.11
7.41
8.66
10.58
12.76
14.81
16.43
17.48
17.90
17.63
16.75
15.39
13.81
12.17
10.45
8.31
5.21
0.74
-5.14
-11.93
-18.80
-24.89
-29.75
-33.41
-36.33
-39.05
-41.96
-45.11
-48.23
-50.78
-52.10
-51.54
-48.54
-42.88
-34.74
-24.78
-13.90
-3.03
7.15
16.35
24.61
32.14
38.98
44.90
49.28
51.34
50.41
46.21
39.18
30.31
20.99
12.52
5.82
1.19
-1.54
-2.81
-3.09
-2.69
-1.78
-0.38
1.55
4.08
7.18
10.60
13.83
16.03
16.25
13.74
8.31
0.46
-8.66
-17.63
-25.19
-30.58
-33.65
-34.71
-34.32
-33.01
-31.24
-29.30
-27.42
-25.75
-24.42
-23.48
-22.89
-22.57
-22.36
-22.19
-22.11
-22.35
-23.19
-24.78
-26.84
-28.66
-29.27
-27.93
-24.43
-19.34
-13.70
-8.56
-4.40
-1.03
2.31
6.48
12.01
18.84
26.34
33.53
39.25
42.55
42.78
39.84
34.20
26.80
18.83
11.40
5.32
1.02
-1.45
-2.23
-1.58
0.31
3.25
7.10
11.62
16.44
20.95
24.32
25.71
24.44
20.30
13.63
5.26
-3.71
-12.23
-19.53
-25.16
-28.96
-30.95
-31.31
-30.43
-28.92
-27.61
-27.33
-28.76
-32.09
-36.94
-42.42
-47.30
-50.35
-50.62
-47.71
-41.83
-33.73
-24.49
-15.25
-6.95
-0.08
5.23
9.14
11.92
13.76
14.78
15.06
14.72
14.01
13.25
12.77
12.75
13.24
14.17
15.44
17.02
18.89
21.04
23.29
25.39
27.02
27.98
28.24
27.98
27.43
26.79
26.13
25.40
24.53
23.44
22.20
20.94
19.82
18.91
18.23
17.71
17.26
16.78
16.20
15.50
14.71
14.02
13.67
13.99
15.13
16.86
18.40
18.41
15.37
8.08
-3.78
-19.35
-36.64
-53.06
-66.10
-73.96
-75.98
-72.55
-64.85
-54.39
-42.64
-30.81
-19.79
-10.10
-2.04
4.37
9.26
12.94
15.84
18.36
20.74
23.01
24.96
26.30
26.78
26.35
25.21
23.71
22.18
20.84
19.71
18.66
17.49
16.07
14.37
12.48
10.61
8.91
7.50
6.34
5.34
4.42
3.59
2.93
2.54
2.40
2.28
1.83
0.69
-1.29
-3.95
-6.92
-9.75
-12.14
-14.04
-15.71
-17.50
-19.81
-22.90
-26.80
-31.24
-35.69
-39.39
-41.52
-41.40
-38.74
-33.72
-27.02
-19.59
-12.38
-6.12
-1.15
2.45
4.78
6.01
6.24
5.58
4.28
2.71
1.33
0.58
0.73
1.78
3.55
5.73
7.99
10.19
12.24
14.18
16.03
17.78
19.28
20.33
20.71
20.22
18.82
16.62
13.84
10.84
7.94
5.36
3.10
0.98
-1.27
-3.81
-6.66
-9.65
-12.51
-15.03
-17.17
-19.08
-21.04
-23.39
-26.36
-30.07
-34.34
-38.77
-42.73
-45.38
-45.94
-43.88
-39.13
-32.13
-23.75
-15.01
-6.85
0.08
5.43
9.07
10.99
11.29
10.19
8.07
5.53
3.26
1.86
1.69
2.86
5.15
8.26
11.88
15.74
19.67
23.43
26.79
29.44
31.18
31.93
31.77
30.90
29.56
27.92
26.06
24.03
21.82
19.47
17.07
14.70
12.50
10.53
8.81
7.26
5.69
3.86
1.55
-1.35
-4.77
-8.48
-12.23
-15.79
-19.03
-22.02
-24.91
-27.95
-31.38
-35.34
-39.75
-44.23
-48.03
-50.21
-49.90
-46.61
-40.44
-32.04
-22.48
-12.82
-3.99
3.44
9.28
13.59
16.62
18.65
19.96
20.70
20.97
20.87
20.58
20.32
20.32
20.69
21.38
22.20
22.97
23.63
24.27
25.10
26.19
27.50
28.72
29.50
29.56
28.82
27.49
25.86
24.22
22.70
21.29
19.82
18.12
16.08
13.73
11.21
8.69
6.33
4.21
2.26
0.39
-1.56
-3.68
-6.00
-8.46
-10.93
-13.32
-15.61
-17.88
-20.34
-23.25
-26.85
-31.25
-36.35
-41.68
-46.45
-49.65
-50.31
-47.79
-42.08
-33.75
-23.85
-13.60
-4.01
4.27
11.01
16.24
20.08
22.61
23.91
24.07
23.23
21.69
19.83
18.03
16.65
15.85
15.72
16.21
17.20
18.57
20.17
21.85
23.40
24.61
25.24
25.13
24.21
22.55
20.28
17.67
14.98
12.47
10.28
8.48
6.95
5.51
3.96
2.12
-0.09
-2.65
-5.46
-8.41
-11.39
-14.30
-17.05
-19.56
-21.84
-24.03
-26.38
-29.26
-32.93
-37.38
-42.13
-46.27
-48.64
-48.26
-44.61
-37.87
-28.83
-18.53
-8.05
1.79
10.48
17.74
23.41
27.38
29.63
30.26
29.59
28.05
26.09
24.09
22.25
20.67
19.45
18.69
18.56
19.17
20.49
22.32
24.27
25.90
26.83
26.92
26.24
25.03
23.62
22.17
20.71
19.12
17.25
15.06
12.69
10.35
8.20
6.26
4.36
2.26
-0.22
-3.16
-6.47
-9.94
-13.37
-16.61
-19.59
-22.34
-24.97
-27.71
-30.83
-34.56
-38.98
-43.84
-48.54
-52.13
-53.61
-52.14
-47.35
-39.48
-29.33
-18.06
-6.88
3.22
11.58
17.96
22.40
25.12
26.42
26.60
25.93
24.65
23.03
21.34
19.90
19.03
18.90
19.54
20.78
22.35
23.96
25.46
26.79
28.02
29.14
30.02
30.38
29.90
28.41
25.99
22.92
19.63
16.49
13.70
11.23
8.88
6.42
3.72
0.72
-2.48
-5.73
-8.90
-11.90
-14.70
-17.32
-19.83
-22.37
-25.19
-28.49
-32.39
-36.68
-40.73
-43.61
-44.32
-42.13
-36.86
-28.96
-19.33
-9.09
0.68
9.16
15.84
20.51
23.20
24.12
23.57
21.88
19.40
16.52
13.62
11.11
9.31
8.46
8.60
9.63
11.30
13.32
15.42
17.30
18.75
19.57
19.68
19.06
17.83
16.13
14.11
11.88
9.45
6.77
3.74
0.31
-3.49
-7.51
-11.53
-15.30
-18.67
-21.62
-24.32
-27.06
-30.20
-33.99
-38.42
-43.13
-47.37
-50.14
-50.44
-47.59
-41.49
-32.69
-22.24
-11.35
-1.09
7.80
15.02
20.50
24.33
26.58
27.33
26.67
24.80
22.03
18.80
15.56
12.76
10.75
9.75
9.84
10.97
12.97
15.57
18.38
20.99
22.98
23.97
23.76
22.36
20.00
17.07
13.98
10.98
8.09
5.11
1.75
-2.15
-6.52
-11.00
-15.17
-18.68
-21.52
-23.97
-26.53
-29.70
-33.77
-38.74
-44.29
-49.77
-54.27
-56.77
-56.33
-52.41
-45.05
-34.93
-23.26
-11.37
-0.43
8.84
16.23
21.88
26.07
29.00
30.73
31.26
30.61
28.99
26.85
24.75
23.19
22.47
22.59
23.28
24.25
25.26
26.21
27.12
27.99
28.72
29.13
28.99
28.15
26.56
24.31
21.58
18.58
15.48
12.38
9.32
6.24
3.05
-0.34
-3.99
-7.88
-11.88
-15.81
-19.45
-22.69
-25.51
-28.04
-30.56
-33.49
-37.21
-41.93
-47.51
-53.34
-58.35
-61.31
-61.10
-57.11
-49.39
-38.68
-26.15
-13.15
-0.91
9.60
17.81
23.52
26.90
28.42
28.66
28.19
27.37
26.36
25.18
23.84
22.45
21.18
20.24
19.75
19.79
20.36
21.44
23.00
24.84
26.55
27.55
27.19
25.01
21.03
15.67
9.69
3.87
-1.27
-5.56
-9.13
-12.21
-14.96
-17.33
-19.14
-20.21
-20.55
-20.52
-20.71
-21.76
-23.98
-27.21
-30.68
-33.43
-34.57
-33.75
-31.35
-28.35
-25.96
-25.21
-26.52
-29.49
-33.05
-35.62
-35.58
-31.67
-23.43
-11.42
2.77
16.83
28.29
35.22
36.78
33.46
26.88
19.28
12.81
8.98
8.42
10.98
16.01
22.72
30.39
38.45
46.37
53.63
59.72
64.23
66.87
67.53
66.25
63.04
57.88
50.75
41.75
31.35
20.48
10.44
2.58
-2.10
-3.32
-1.55
2.19
6.75
11.19
15.03
18.15
20.63
22.44
23.30
22.72
20.19
15.47
8.79
0.86
-7.36
-14.98
-21.46
-26.79
-31.32
-35.60
-40.16
-45.33
-51.14
-57.38
-63.37
-68.17
-70.63
-69.73
-64.92
-56.36
-44.90
-31.92
-18.90
-7.13
2.50
9.56
14.03
16.16
16.41
15.33
13.51
11.54
9.94
9.09
9.24
10.45
12.61
15.47
18.69
21.91
24.89
27.49
29.64
31.33
32.54
33.22
33.32
32.82
31.72
30.09
27.97
25.43
22.51
19.25
15.75
12.16
8.63
5.29
2.17
-0.76
-3.59
-6.40
-9.24
-12.08
-14.83
-17.37
-19.60
-21.51
-23.15
-24.66
-26.24
-28.16
-30.74
-34.26
-38.80
-44.01
-49.06
-52.72
-53.80
-51.55
-46.03
-38.08
-28.98
-19.99
-11.95
-5.17
0.37
4.75
7.95
9.86
10.48
10.04
9.00
7.88
7.10
6.82
7.00
7.51
8.28
9.43
11.07
13.27
15.84
18.37
20.25
20.91
20.01
17.59
14.08
10.15
6.50
3.64
1.80
0.86
0.55
0.52
0.53
0.38
-0.02
-0.75
-1.81
-3.15
-4.68
-6.27
-7.87
-9.58
-11.59
-14.02
-16.75
-19.26
-20.73
-20.26
-17.20
-11.46
-3.57
5.48
14.55
22.68
29.27
34.06
37.09
38.53
38.53
37.25
34.84
31.45
27.33
22.78
18.17
13.87
10.19
7.36
5.49
4.62
4.69
5.60
7.16
9.06
10.91
12.32
12.97
12.67
11.43
9.41
6.87
4.09
1.24
-1.68
-4.81
-8.32
-12.31
-16.68
-21.21
-25.60
-29.63
-33.27
-36.64
-40.00
-43.61
-47.70
-52.41
-57.63
-62.91
-67.36
-69.74
-68.84
-63.91
-55.00
-43.01
-29.37
-15.65
-3.07
7.68
16.41
23.18
28.13
31.37
32.99
33.19
32.31
30.77
28.99
27.27
25.78
24.55
23.62
23.02
22.85
23.21
24.10
25.39
26.74
27.77
28.06
27.35
25.60
23.00
19.89
16.60
13.39
10.33
7.33
4.22
0.85
-2.82
-6.73
-10.73
-14.64
-18.29
-21.59
-24.51
-27.18
-29.94
-33.24
-37.55
-43.10
-49.59
-56.08
-61.12
-63.14
-61.03
-54.51
-44.27
-31.73
-18.49
-5.92
5.16
14.45
21.90
27.54
31.39
33.53
34.20
33.80
32.81
31.69
30.66
29.83
29.20
28.73
28.45
28.39
28.57
28.94
29.46
30.06
30.67
31.20
31.45
31.12
29.93
27.74
24.67
21.08
17.44
14.13
11.30
8.83
6.39
3.64
0.40
-3.32
-7.37
-11.54
-15.62
-19.48
-23.05
-26.36
-29.54
-32.87
-36.70
-41.30
-46.61
-52.15
-56.90
-59.57
-58.98
-54.42
-46.02
-34.68
-21.81
-8.93
2.71
12.41
19.94
25.42
29.08
31.12
31.67
30.88
29.00
26.43
23.70
21.31
19.64
18.81
18.76
19.33
20.34
21.70
23.32
25.08
26.78
28.18
29.03
29.17
28.57
27.30
25.46
23.16
20.51
17.59
14.55
11.54
8.63
5.77
2.79
-0.50
-4.24
-8.34
-12.55
-16.49
-19.86
-22.51
-24.66
-26.72
-29.27
-32.83
-37.60
-43.30
-49.15
-54.01
-56.65
-56.13
-52.06
-44.72
-34.87
-23.61
-12.03
-1.03
8.69
16.70
22.75
26.79
28.87
29.17
27.95
25.55
22.38
19.00
15.98
13.86
12.92
13.15
14.31
16.05
18.12
20.39
22.77
25.09
27.01
28.10
27.99
26.57
24.04
20.89
17.61
14.57
11.84
9.29
6.61
3.52
-0.15
-4.38
-8.91
-13.35
-17.27
-20.41
-22.79
-24.74
-26.84
-29.70
-33.73
-38.96
-44.87
-50.46
-54.44
-55.57
-53.03
-46.69
-37.13
-25.58
-13.47
-2.10
7.64
15.38
21.14
25.17
27.74
29.04
29.19
28.31
26.67
24.62
22.66
21.18
20.46
20.49
21.09
22.00
23.02
24.09
25.20
26.31
27.28
27.84
27.74
26.84
25.25
23.21
20.98
18.72
16.46
14.10
11.57
8.83
5.89
2.78
-0.54
-4.06
-7.72
-11.32
-14.63
-17.46
-19.85
-22.11
-24.68
-28.05
-32.47
-37.90
-43.86
-49.52
-53.77
-55.49
-53.83
-48.50
-39.93
-29.14
-17.45
-6.09
4.07
12.59
19.32
24.25
27.35
28.63
28.21
26.46
23.91
21.16
18.74
16.94
15.91
15.62
15.98
16.92
18.36
20.20
22.27
24.33
26.03
27.05
27.10
26.09
24.17
21.65
18.97
16.43
14.18
12.09
9.90
7.36
4.37
1.01
-2.45
-5.75
-8.67
-11.19
-13.45
-15.76
-18.49
-21.99
-26.49
-31.90
-37.71
-42.92
-46.27
-46.66
-43.45
-36.82
-27.70
-17.43
-7.38
1.53
8.88
14.66
19.00
21.94
23.45
23.44
22.00
19.42
16.21
12.89
9.93
7.65
6.20
5.64
5.97
7.18
9.15
11.68
14.44
17.05
19.10
20.31
20.49
19.66
17.89
15.37
12.29
8.82
5.08
1.19
-2.79
-6.73
-10.53
-14.07
-17.36
-20.51
-23.81
-27.57
-32.01
-37.08
-42.38
-47.14
-50.41
-51.28
-49.13
-43.82
-35.77
-25.83
-15.09
-4.66
4.55
11.95
17.24
20.43
21.71
21.41
19.91
17.59
14.82
11.94
9.28
7.13
5.72
5.13
5.24
5.83
6.59
7.34
8.01
8.71
9.50
10.34
10.94
10.87
9.71
7.24
3.62
-0.73
-5.26
-9.53
-13.32
-16.65
-19.72
-22.76
-26.03
-29.82
-34.33
-39.64
-45.40
-50.84
-54.73
-55.79
-53.07
-46.41
-36.48
-24.63
-12.41
-1.10
8.48
16.04
21.64
25.50
27.83
28.86
28.83
27.97
26.56
24.82
22.97
21.22
19.76
18.74
18.22
18.19
18.53
19.11
19.79
20.43
20.85
20.85
20.20
18.79
16.59
13.74
10.47
6.93
3.20
-0.72
-4.87
-9.21
-13.66
-18.15
-22.65
-27.22
-32.07
-37.37
-43.24
-49.53
-55.70
-60.78
-63.51
-62.71
-57.72
-48.66
-36.52
-22.83
-9.25
2.97
13.11
21.02
26.79
30.60
32.59
32.96
32.06
30.33
28.30
26.40
24.86
23.73
22.92
22.39
22.16
22.38
23.16
24.52
26.27
28.03
29.34
29.78
29.13
27.39
24.80
21.69
18.38
15.05
11.73
8.31
4.64
0.63
-3.74
-8.32
-12.85
-17.12
-20.97
-24.46
-27.82
-31.43
-35.72
-41.01
-47.18
-53.60
-59.09
-62.14
-61.40
-56.16
-46.69
-34.17
-20.38
-7.06
4.55
13.85
20.85
25.87
29.24
31.19
31.91
31.60
30.59
29.25
27.95
26.96
26.46
26.47
26.92
27.69
28.64
29.66
30.68
31.63
32.46
33.05
33.16
32.52
30.92
28.31
24.89
21.05
17.28
13.92
11.10
8.62
6.11
3.16
-0.47
-4.76
-9.41
-14.01
-18.16
-21.68
-24.64
-27.33
-30.15
-33.52
-37.75
-42.85
-48.41
-53.58
-57.16
-57.87
-54.76
-47.59
-36.94
-24.09
-10.67
1.85
12.44
20.71
26.74
30.90
33.53
34.90
35.13
34.32
32.66
30.46
28.19
26.30
25.16
24.95
25.61
26.96
28.78
30.87
33.04
35.09
36.72
37.57
37.33
35.88
33.26
29.75
25.67
21.27
16.72
12.11
7.55
3.16
-0.91
-4.52
-7.70
-10.52
-13.11
-15.57
-17.93
-20.20
-22.34
-24.36
-26.31
-28.24
-30.24
-32.45
-35.09
-38.40
-42.45
-46.94
-51.10
-53.79
-53.81
-50.32
-43.18
-33.08
-21.25
-9.13
2.07
11.63
19.25
24.96
28.88
31.13
31.81
31.11
29.36
27.01
24.62
22.62
21.32
20.83
21.05
21.84
23.05
24.51
26.07
27.54
28.70
29.34
29.28
28.45
26.86
24.57
21.72
18.53
15.23
12.09
9.30
6.93
4.84
2.74
0.31
-2.64
-6.14
-9.98
-13.84
-17.38
-20.36
-22.73
-24.66
-26.45
-28.52
-31.19
-34.66
-38.75
-42.93
-46.31
-47.88
-46.73
-42.38
-35.00
-25.35
-14.60
-3.93
5.66
13.58
19.59
23.69
26.01
26.68
25.95
24.12
21.56
18.65
15.71
12.92
10.47
8.52
7.27
6.91
7.54
9.06
11.18
13.43
15.30
16.37
16.38
15.29
13.28
10.69
7.90
5.25
2.92
0.85
-1.14
-3.29
-5.76
-8.55
-11.53
-14.51
-17.34
-19.97
-22.53
-25.27
-28.55
-32.65
-37.57
-42.96
-48.00
-51.56
-52.50
-50.04
-44.02
-35.03
-24.18
-12.83
-2.16
6.99
14.23
19.54
23.06
25.03
25.63
25.07
23.52
21.24
18.51
15.63
12.87
10.47
8.62
7.47
7.12
7.57
8.73
10.36
12.15
13.71
14.67
14.81
14.12
12.75
10.99
9.06
7.05
4.86
2.24
-0.98
-4.80
-9.01
-13.25
-17.12
-20.45
-23.33
-26.07
-29.15
-33.04
-38.01
-44.01
-50.49
-56.43
-60.48
-61.35
-58.20
-50.98
-40.51
-28.19
-15.55
-3.83
6.25
14.45
20.80
25.36
28.21
29.42
29.21
27.92
25.99
23.78
21.51
19.30
17.26
15.58
14.55
14.41
15.24
16.88
18.93
20.94
22.50
23.32
23.26
22.30
20.49
17.99
15.05
11.91
8.77
5.65
2.43
-1.05
-4.92
-9.11
-13.42
-17.59
-21.46
-25.02
-28.45
-32.11
-36.38
-41.52
-47.50
-53.83
-59.49
-63.12
-63.34
-59.34
-51.11
-39.58
-26.26
-12.82
-0.51
9.94
18.37
24.87
29.60
32.68
34.26
34.55
33.94
32.84
31.64
30.56
29.66
28.95
28.47
28.30
28.60
29.42
30.68
32.15
33.48
34.37
34.59
34.07
32.86
31.11
29.03
26.77
24.48
22.10
19.56
16.70
13.43
9.83
6.06
2.33
-1.28
-4.78
-8.35
-12.14
-16.29
-20.93
-26.23
-32.44
-39.68
-47.71
-55.66
-62.17
-65.66
-64.86
-59.29
-49.48
-36.78
-22.97
-9.79
1.44
9.97
15.60
18.55
19.34
18.64
17.05
15.05
12.90
10.72
8.63
6.84
5.67
5.40
6.21
8.00
10.51
13.40
16.41
19.25
21.48
22.45
21.39
17.83
11.97
4.93
-1.59
-5.88
-6.96
-4.94
-0.87
3.76
7.73
10.39
11.74
12.14
12.08
11.96
12.11
12.79
14.19
16.27
18.67
20.67
21.40
20.10
16.45
10.87
4.44
-1.35
-5.00
-5.53
-2.75
2.68
9.53
16.44
22.29
26.46
28.74
29.23
28.14
25.69
22.15
17.87
13.30
8.96
5.31
2.62
0.93
0.05
-0.32
-0.46
-0.52
-0.46
-0.20
0.30
0.97
1.55
1.75
1.32
0.22
-1.39
-3.25
-5.14
-7.03
-9.06
-11.53
-14.64
-18.41
-22.66
-27.01
-31.10
-34.66
-37.57
-39.88
-41.73
-43.31
-44.93
-46.91
-49.54
-52.86
-56.46
-59.42
-60.51
-58.61
-53.12
-44.29
-33.10
-20.96
-9.20
1.29
10.11
17.25
22.84
26.96
29.59
30.67
30.25
28.49
25.74
22.47
19.20
16.43
14.54
13.75
14.10
15.43
17.44
19.74
21.90
23.54
24.31
24.09
22.96
21.18
19.07
16.90
14.72
12.39
9.69
6.46
2.72
-1.35
-5.46
-9.35
-12.84
-15.89
-18.59
-21.16
-23.90
-27.14
-31.09
-35.67
-40.37
-44.29
-46.37
-45.64
-41.62
-34.46
-24.90
-14.11
-3.31
6.46
14.58
20.83
25.31
28.21
29.71
29.88
28.72
26.28
22.81
18.82
14.98
11.97
10.26
9.94
10.77
12.30
13.99
15.45
16.45
16.92
16.87
16.27
15.09
13.30
10.92
8.00
4.69
1.13
-2.52
-6.15
-9.70
-13.19
-16.70
-20.38
-24.38
-28.83
-33.78
-39.09
-44.32
-48.77
-51.49
-51.56
-48.36
-41.79
-32.40
-21.29
-9.76
1.00
10.20
17.48
22.84
26.44
28.39
28.77
27.60
25.07
21.55
17.62
14.00
11.29
9.85
9.70
10.53
11.92
13.46
14.91
16.15
17.14
17.78
17.88
17.21
15.58
12.96
9.46
5.31
0.80
-3.83
-8.35
-12.63
-16.61
-20.37
-24.13
-28.24
-33.04
-38.76
-45.26
-51.91
-57.63
-61.08
-61.05
-56.87
-48.65
-37.28
-24.19
-10.95
1.12
11.20
18.96
24.50
28.06
29.94
30.38
29.60
27.84
25.42
22.72
20.11
17.94
16.41
15.66
15.71
16.48
17.80
19.42
21.04
22.38
23.26
23.55
23.15
21.82
19.26
15.15
9.38
2.14
-5.95
-14.07
-21.35
-27.18
-31.34
-34.01
-35.72
-37.15
-39.02
-41.95
-46.15
-51.39
-56.83
-61.17
-62.90
-60.79
-54.35
-44.02
-31.11
-17.37
-4.48
6.39
14.78
20.80
24.90
27.55
29.07
29.63
29.36
28.47
27.38
26.59
26.53
27.43
29.22
31.62
34.32
37.10
39.78
42.18
43.94
44.61
43.74
41.20
37.31
32.76
28.35
24.65
21.77
19.35
16.76
13.37
8.66
2.42
-5.32
-14.34
-24.19
-34.39
-44.42
-53.93
-62.79
-71.18
-79.48
-88.15
-97.44
-107.18
-116.69
-124.87
-130.51
-132.68
-131.10
-126.18
-118.88
-110.29
-101.23
-92.12
-83.00
-73.70
-63.92
-53.33
-41.56
-28.25
-13.15
3.68
21.82
40.56
59.13
76.94
93.61
108.94
122.65
134.23
143.04
148.52
150.42
148.95
144.79
138.78
131.69
124.03
116.02
107.68
98.99
90.05
81.06
72.31
64.05
56.43
49.43
42.80
36.20
29.30
21.93
14.20
6.46
-0.82
-7.31
-12.93
-17.95
-22.90
-28.39
-34.84
-42.33
-50.38
-58.01
-63.85
-66.49
-64.85
-58.54
-48.02
-34.55
-19.84
-5.61
6.86
16.84
24.25
29.31
32.40
33.86
33.95
32.92
31.06
28.77
26.50
24.71
23.73
23.75
24.79
26.65
28.99
31.44
33.62
35.27
36.27
36.60
36.26
35.26
33.61
31.34
28.58
25.53
22.38
19.25
16.15
13.02
9.79
6.44
3.03
-0.32
-3.58
-6.74
-9.82
-12.85
-15.81
-18.61
-21.23
-23.69
-26.10
-28.67
-31.63
-35.24
-39.65
-44.77
-50.21
-55.19
-58.63
-59.39
-56.61
-50.03
-40.08
-27.88
-14.91
-2.65
7.73
15.59
20.75
23.37
23.75
22.19
18.98
14.47
9.22
4.03
-0.16
-2.55
-2.71
-0.81
2.52
6.45
10.26
13.50
15.96
17.54
18.09
17.48
15.73
13.22
10.60
8.62
7.82
8.30
9.71
11.45
12.96
13.90
14.18
13.86
13.05
11.86
10.41
8.89
7.50
6.42
5.62
4.87
3.72
1.59
-1.98
-7.20
-13.78
-20.97
-27.52
-32.08
-33.45
-31.03
-24.95
-16.09
-5.76
4.61
13.84
21.19
26.35
29.33
30.32
29.59
27.38
24.02
19.90
15.56
11.58
8.50
6.63
5.97
6.25
7.06
8.06
9.09
10.17
11.35
12.58
13.64
14.17
13.81
12.37
9.85
6.52
2.78
-0.91
-4.22
-6.99
-9.35
-11.60
-14.08
-17.02
-20.38
-23.85
-27.04
-29.65
-31.62
-33.19
-34.80
-36.94
-39.94
-43.92
-48.66
-53.55
-57.60
-59.62
-58.46
-53.43
-44.53
-32.59
-19.00
-5.37
6.89
16.87
24.16
28.82
31.18
31.69
30.82
29.03
26.69
24.08
21.46
19.06
17.13
15.89
15.54
16.09
17.41
19.18
21.05
22.70
23.90
24.55
24.61
24.04
22.80
20.87
18.28
15.16
11.68
7.98
4.12
0.12
-4.06
-8.33
-12.58
-16.63
-20.37
-23.72
-26.66
-29.11
-30.96
-32.09
-32.56
-32.76
-33.36
-35.20
-38.87
-44.44
-51.13
-57.48
-61.62
-61.90
-57.41
-48.32
-35.80
-21.62
-7.66
4.72
14.80
22.48
28.00
31.68
33.75
34.36
33.73
32.21
30.27
28.40
26.99
26.20
26.04
26.32
26.87
27.56
28.32
29.12
29.94
30.70
31.25
31.43
31.07
30.06
28.37
26.04
23.16
19.83
16.16
12.32
8.51
4.90
1.64
-1.29
-4.07
-6.93
-10.07
-13.54
-17.19
-20.74
-23.94
-26.63
-28.86
-30.95
-33.28
-36.28
-40.26
-45.26
-50.89
-56.32
-60.34
-61.67
-59.29
-52.81
-42.67
-30.01
-16.47
-3.59
7.45
16.11
22.37
26.58
29.14
30.29
30.19
28.94
26.78
24.11
21.49
19.42
18.22
17.94
18.35
19.19
20.23
21.41
22.73
24.20
25.65
26.78
27.23
26.72
25.21
22.91
20.22
17.53
15.10
12.96
10.98
8.94
6.60
3.84
0.62
-3.02
-6.94
-10.93
-14.73
-18.10
-20.86
-23.03
-24.85
-26.73
-29.19
-32.62
-37.15
-42.42
-47.64
-51.66
-53.26
-51.52
-46.12
-37.47
-26.62
-14.93
-3.71
6.06
13.87
19.68
23.68
26.12
27.15
26.86
25.32
22.75
19.53
16.20
13.29
11.20
10.13
10.03
10.76
12.08
13.82
15.78
17.66
19.15
19.96
19.88
18.93
17.33
15.32
13.16
10.93
8.54
5.87
2.81
-0.64
-4.37
-8.19
-11.98
-15.64
-19.14
-22.49
-25.72
-28.96
-32.40
-36.25
-40.63
-45.33
-49.70
-52.76
-53.40
-50.78
-44.67
-35.55
-24.43
-12.58
-1.12
9.09
17.60
24.18
28.78
31.40
32.07
30.96
28.35
24.75
20.74
16.98
13.97
12.03
11.18
11.26
12.03
13.29
14.96
16.96
19.14
21.14
22.51
22.80
21.83
19.74
16.91
13.78
10.68
7.69
4.65
1.37
-2.30
-6.37
-10.69
-15.05
-19.23
-23.04
-26.37
-29.28
-32.00
-34.95
-38.62
-43.30
-48.93
-54.86
-59.96
-62.85
-62.34
-57.78
-49.34
-37.96
-25.02
-11.98
-0.02
10.13
18.23
24.29
28.48
30.95
31.81
31.20
29.39
26.77
23.87
21.26
19.36
18.41
18.42
19.29
20.79
22.70
24.77
26.75
28.37
29.41
29.67
29.12
27.76
25.66
22.94
19.77
16.34
12.91
9.66
6.70
3.98
1.27
-1.70
-5.12
-9.07
-13.49
-18.14
-22.73
-26.99
-30.73
-33.92
-36.80
-39.78
-43.35
-47.89
-53.35
-59.19
-64.31
-67.37
-67.11
-62.83
-54.54
-42.97
-29.43
-15.37
-2.08
9.46
18.75
25.69
30.45
33.40
34.91
35.28
34.73
33.41
31.53
29.40
27.42
26.00
25.35
25.50
26.26
27.39
28.67
29.98
31.23
32.36
33.19
33.53
33.20
32.05
30.04
27.25
23.78
19.86
15.74
11.69
7.94
4.59
1.56
-1.33
-4.35
-7.74
-11.58
-15.82
-20.29
-24.74
-28.94
-32.67
-35.85
-38.57
-41.17
-44.18
-48.14
-53.31
-59.37
-65.28
-69.50
-70.40
-66.84
-58.63
-46.56
-32.21
-17.33
-3.45
8.50
18.06
25.21
30.08
32.92
34.10
34.05
33.32
32.35
31.45
30.67
29.98
29.31
28.73
28.36
28.40
28.99
30.14
31.69
33.34
34.70
35.39
35.16
34.00
32.08
29.73
27.26
24.87
22.56
20.18
17.58
14.62
11.36
7.95
4.58
1.43
-1.45
-4.15
-6.84
-9.73
-12.92
-16.30
-19.61
-22.48
-24.72
-26.37
-27.83
-29.66
-32.45
-36.58
-41.97
-48.11
-54.00
-58.34
-59.79
-57.38
-50.79
-40.55
-27.87
-14.35
-1.47
9.71
18.75
25.62
30.49
33.55
34.92
34.72
33.23
30.84
28.09
25.51
23.51
22.33
22.04
22.60
23.83
25.53
27.45
29.30
30.83
31.83
32.18
31.85
30.92
29.53
27.85
26.00
24.04
21.93
19.60
17.02
14.26
11.43
8.65
5.99
3.46
0.98
-1.54
-4.14
-6.78
-9.39
-11.91
-14.32
-16.65
-19.00
-21.49
-24.30
-27.65
-31.75
-36.59
-41.82
-46.64
-49.95
-50.64
-47.99
-41.96
-33.18
-22.68
-11.59
-0.86
8.81
16.94
23.13
27.11
28.77
28.26
26.04
22.79
19.25
16.01
13.45
11.75
10.91
10.87
11.58
12.95
14.83
17.02
19.22
21.09
22.28
22.53
21.77
20.08
17.69
14.86
11.86
8.89
6.04
3.33
0.65
-2.17
-5.26
-8.67
-12.28
-15.79
-18.82
-21.14
-22.81
-24.24
-26.09
-28.98
-33.18
-38.38
-43.68
-47.83
-49.60
-48.18
-43.44
-35.93
-26.59
-16.51
-6.65
2.31
9.95
16.05
20.49
23.26
24.43
24.16
22.63
20.06
16.76
13.11
9.59
6.73
4.97
4.46
5.12
6.62
8.52
10.46
12.14
13.43
14.25
14.53
14.20
13.20
11.49
9.07
6.02
2.46
-1.45
-5.54
-9.66
-13.77
-17.80
-21.75
-25.64
-29.52
-33.50
-37.79
-42.53
-47.62
-52.52
-56.27
-57.64
-55.59
-49.65
-40.18
-28.32
-15.60
-3.50
6.89
15.10
21.07
25.05
27.28
27.95
27.25
25.35
22.57
19.29
16.00
13.18
11.20
10.29
10.45
11.46
12.94
14.46
15.68
16.47
16.81
16.81
16.57
16.03
15.05
13.38
10.84
7.41
3.19
-1.52
-6.34
-10.89
-14.97
-18.54
-21.78
-25.01
-28.64
-32.96
-38.14
-44.05
-50.16
-55.60
-59.19
-59.80
-56.65
-49.63
-39.39
-27.18
-14.45
-2.54
7.66
15.76
21.74
25.83
28.32
29.53
29.74
29.16
28.01
26.43
24.61
22.78
21.25
20.36
20.32
21.14
22.61
24.40
26.17
27.69
28.78
29.25
28.94
27.72
25.55
22.59
19.14
15.50
11.86
8.19
4.25
-0.09
-4.83
-9.72
-14.35
-18.32
-21.52
-24.11
-26.56
-29.51
-33.54
-38.92
-45.42
-52.22
-57.96
-61.13
-60.44
-55.29
-46.00
-33.74
-20.17
-6.94
4.70
14.09
21.10
25.97
29.04
30.70
31.26
31.03
30.24
29.13
27.90
26.76
25.84
25.26
25.05
25.22
25.72
26.52
27.63
29.05
30.70
32.31
33.45
33.66
32.61
30.24
26.85
22.99
19.20
15.85
13.00
10.39
7.61
4.30
0.23
-4.53
-9.64
-14.65
-19.13
-22.83
-25.83
-28.49
-31.39
-35.11
-40.07
-46.28
-53.24
-59.92
-64.94
-66.90
-64.78
-58.29
-48.00
-35.18
-21.45
-8.31
3.16
12.44
19.49
24.50
27.77
29.51
29.99
29.48
28.35
27.02
25.87
25.17
25.00
25.24
25.74
26.35
27.08
28.01
29.23
30.71
32.19
33.21
33.25
31.99
29.39
25.80
21.81
18.01
14.78
12.13
9.84
7.48
4.70
1.28
-2.72
-7.05
-11.30
-15.05
-18.05
-20.29
-22.08
-23.95
-26.51
-30.29
-35.49
-41.90
-48.73
-54.73
-58.44
-58.52
-54.22
-45.64
-33.84
-20.46
-7.26
4.41
13.80
20.81
25.64
28.57
29.85
29.63
28.15
25.75
22.97
20.32
18.30
17.19
17.10
17.95
19.50
21.48
23.56
25.44
26.89
27.78
28.03
27.63
26.59
24.92
22.67
19.85
16.54
12.84
8.90
4.88
0.92
-2.89
-6.47
-9.80
-12.84
-15.71
-18.60
-21.81
-25.69
-30.40
-35.66
-40.66
-44.19
-44.93
-41.96
-35.11
-25.08
-13.19
-0.95
10.39
20.08
27.83
33.65
37.58
39.65
39.92
38.50
35.75
32.17
28.34
24.81
21.95
20.00
19.06
19.13
20.07
21.66
23.52
25.20
26.29
26.49
25.76
24.23
22.16
19.76
17.11
14.20
10.93
7.33
3.51
-0.27
-3.79
-6.92
-9.70
-12.30
-14.90
-17.69
-20.79
-24.33
-28.38
-32.89
-37.55
-41.67
-44.21
-44.06
-40.45
-33.23
-23.08
-11.24
0.78
11.68
20.61
27.24
31.58
33.75
33.89
32.12
28.64
23.85
18.37
12.94
8.32
5.14
3.70
3.98
5.57
7.88
10.29
12.31
13.76
14.61
14.99
14.94
14.42
13.26
11.32
8.59
5.23
1.58
-2.03
-5.38
-8.42
-11.26
-14.14
-17.30
-20.96
-25.21
-30.02
-35.12
-39.99
-43.87
-45.83
-45.01
-40.92
-33.64
-23.87
-12.72
-1.49
8.75
17.28
23.78
28.17
30.50
30.86
29.42
26.46
22.45
17.95
13.56
9.75
6.81
4.85
3.84
3.65
4.10
4.98
6.09
7.23
8.21
8.83
8.86
8.12
6.46
3.86
0.44
-3.54
-7.76
-11.88
-15.72
-19.23
-22.60
-26.11
-30.17
-35.03
-40.74
-46.94
-52.79
-57.08
-58.53
-56.20
-49.82
-39.95
-27.76
-14.70
-2.06
9.24
18.71
26.12
31.36
34.36
35.09
33.72
30.62
26.38
21.69
17.20
13.44
10.72
9.13
8.52
8.57
8.92
9.30
9.62
9.91
10.26
10.62
10.77
10.37
9.03
6.55
2.99
-1.38
-6.11
-10.80
-15.19
-19.22
-23.06
-26.98
-31.35
-36.45
-42.34
-48.76
-55.04
-60.09
-62.63
-61.52
-56.11
-46.51
-33.65
-19.01
-4.21
9.38
20.96
30.20
37.13
41.86
44.56
45.38
44.62
42.70
40.24
37.87
36.19
35.64
36.46
38.59
41.57
44.63
46.81
47.26
45.56
41.82
36.61
30.75
24.91
19.42
14.26
9.14
3.82
-1.75
-7.42
-12.91
-17.98
-22.58
-26.86
-31.12
-35.69
-40.84
-46.68
-53.08
-59.60
-65.54
-69.91
-71.67
-69.98
-64.52
-55.66
-44.33
-31.84
-19.48
-8.25
1.25
8.79
14.32
17.93
19.74
19.98
19.00
17.29
15.36
13.67
12.55
12.19
12.63
13.82
15.61
17.82
20.22
22.52
24.37
25.46
25.55
24.63
22.89
20.68
18.34
16.03
13.71
11.16
8.18
4.67
0.78
-3.25
-7.15
-10.76
-14.09
-17.26
-20.58
-24.36
-28.89
-34.21
-39.92
-45.08
-48.43
-48.72
-45.16
-37.77
-27.39
-15.48
-3.53
7.20
15.98
22.54
26.88
29.16
29.56
28.35
25.89
22.68
19.25
16.12
13.65
12.08
11.47
11.81
12.99
14.84
17.07
19.38
21.39
22.73
23.21
22.75
21.49
19.64
17.39
14.90
12.17
9.20
5.98
2.56
-0.92
-4.34
-7.62
-10.80
-14.00
-17.35
-20.98
-24.97
-29.35
-34.09
-39.04
-43.73
-47.33
-48.74
-46.95
-41.41
-32.37
-20.90
-8.58
3.04
12.83
20.32
25.54
28.75
30.13
29.74
27.60
23.92
19.18
14.14
9.64
6.43
4.93
5.16
6.77
9.14
11.63
13.73
15.18
15.98
16.28
16.21
15.73
14.65
12.73
9.86
6.22
2.15
-1.89
-5.60
-8.92
-12.05
-15.23
-18.69
-22.54
-26.86
-31.69
-36.99
-42.52
-47.63
-51.29
-52.35
-49.90
-43.66
-34.15
-22.58
-10.42
1.00
10.81
18.69
24.65
28.78
31.14
31.63
30.23
27.16
22.99
18.57
14.75
12.11
10.85
10.73
11.31
12.20
13.17
14.11
15.00
15.74
16.16
16.09
15.38
14.00
11.93
9.16
5.65
1.45
-3.26
-8.15
-12.85
-17.11
-20.90
-24.45
-28.16
-32.48
-37.66
-43.59
-49.69
-54.97
-58.16
-58.04
-53.88
-45.69
-34.29
-21.12
-7.83
4.19
14.06
21.51
26.67
29.84
31.30
31.26
29.93
27.61
24.70
21.67
18.94
16.84
15.53
15.06
15.40
16.46
17.97
19.61
20.94
21.59
21.35
20.30
18.68
16.76
14.69
12.42
9.73
6.47
2.59
-1.76
-6.35
-10.90
-15.17
-19.09
-22.66
-26.08
-29.67
-33.84
-38.96
-45.02
-51.47
-57.18
-60.70
-60.67
-56.32
-47.81
-36.16
-22.89
-9.56
2.65
13.09
21.58
28.15
32.92
36.02
37.60
37.86
37.13
35.78
34.12
32.44
30.92
29.67
28.73
28.12
27.86
28.00
28.56
29.51
30.69
31.72
32.15
31.59
29.86
27.11
23.78
20.39
17.32
14.65
12.13
9.35
5.94
1.78
-2.95
-7.90
-12.61
-16.81
-20.37
-23.43
-26.29
-29.35
-32.99
-37.51
-42.88
-48.69
-54.00
-57.50
-57.88
-54.20
-46.39
-35.20
-22.13
-8.86
3.21
13.24
21.00
26.72
30.72
33.27
34.50
34.49
33.43
31.68
29.73
28.12
27.20
27.10
27.65
28.60
29.68
30.75
31.75
32.66
33.39
33.79
33.66
32.86
31.35
29.24
26.65
23.79
20.86
18.04
15.43
13.01
10.65
8.12
5.19
1.73
-2.25
-6.53
-10.79
-14.70
-18.01
-20.64
-22.74
-24.56
-26.49
-28.97
-32.34
-36.72
-41.84
-46.89
-50.70
-51.96
-49.69
-43.55
-34.03
-22.33
-9.96
1.66
11.55
19.26
24.73
28.12
29.60
29.36
27.65
24.85
21.51
18.29
15.76
14.22
13.71
13.98
14.74
15.79
17.11
18.74
20.66
22.59
24.04
24.49
23.63
21.51
18.52
15.26
12.23
9.62
7.30
4.92
2.16
-1.07
-4.65
-8.29
-11.68
-14.64
-17.20
-19.51
-21.83
-24.45
-27.66
-31.67
-36.43
-41.54
-46.15
-49.12
-49.31
-46.00
-39.17
-29.53
-18.32
-6.88
3.63
12.52
19.52
24.62
27.92
29.51
29.49
28.02
25.37
21.93
18.20
14.67
11.78
9.88
9.11
9.44
10.66
12.45
14.42
16.21
17.56
18.27
18.29
17.61
16.30
14.43
12.09
9.33
6.16
2.56
-1.44
-5.74
-10.12
-14.34
-18.14
-21.46
-24.36
-27.10
-30.05
-33.59
-37.93
-43.00
-48.32
-52.99
-55.88
-55.92
-52.42
-45.38
-35.45
-23.82
-11.88
-0.87
8.36
15.37
20.13
22.88
23.99
23.83
22.75
20.98
18.73
16.24
13.81
11.85
10.72
10.66
11.63
13.31
15.20
16.79
17.77
18.02
17.61
16.64
15.20
13.27
10.88
8.10
5.06
1.86
-1.50
-5.12
-9.09
-13.41
-17.82
-21.93
-25.36
-28.01
-30.14
-32.39
-35.49
-39.97
-45.79
-52.21
-57.91
-61.32
-61.08
-56.54
-47.88
-36.12
-22.80
-9.50
2.55
12.58
20.39
26.04
29.76
31.81
32.45
31.97
30.74
29.08
27.31
25.61
24.11
22.86
21.94
21.48
21.63
22.43
23.82
25.53
27.14
28.22
28.38
27.45
25.43
22.52
19.02
15.23
11.37
7.54
3.73
-0.12
-4.07
-8.14
-12.24
-16.24
-20.01
-23.46
-26.65
-29.80
-33.28
-37.43
-42.37
-47.72
-52.53
-55.45
-55.14
-50.81
-42.53
-31.25
-18.53
-5.92
5.36
14.71
21.97
27.19
30.52
32.07
32.05
30.82
28.95
26.96
25.31
24.14
23.35
22.74
22.16
21.62
21.28
21.38
22.04
23.19
24.49
25.46
25.69
24.91
23.15
20.67
17.86
15.07
12.45
9.94
7.35
4.42
0.96
-3.03
-7.33
-11.57
-15.38
-18.49
-20.87
-22.80
-24.74
-27.25
-30.76
-35.39
-40.78
-46.07
-50.07
-51.54
-49.58
-43.93
-35.03
-23.91
-11.94
-0.46
9.50
17.30
22.79
26.14
27.74
28.01
27.33
25.94
24.06
21.86
19.63
17.67
16.25
15.55
15.58
16.26
17.47
19.10
21.00
22.90
24.43
25.17
24.78
23.13
20.42
17.10
13.69
10.59
7.93
5.54
3.08
0.22
-3.12
-6.78
-10.41
-13.66
-16.38
-18.71
-21.01
-23.70
-27.09
-31.26
-35.94
-40.52
-44.09
-45.61
-44.22
-39.48
-31.65
-21.61
-10.66
-0.11
9.05
16.34
21.72
25.37
27.48
28.12
27.34
25.24
22.14
18.54
15.08
12.32
10.63
10.07
10.49
11.58
13.02
14.54
15.89
16.86
17.28
17.00
15.98
14.26
11.93
9.10
5.85
2.28
-1.48
-5.25
-8.81
-12.00
-14.79
-17.31
-19.82
-22.68
-26.17
-30.48
-35.53
-40.88
-45.77
-49.22
-50.27
-48.27
-43.08
-35.11
-25.26
-14.59
-4.12
5.36
13.37
19.62
24.01
26.50
27.17
26.17
23.78
20.40
16.50
12.63
9.27
6.83
5.51
5.31
6.09
7.56
9.40
11.32
13.10
14.53
15.45
15.68
15.08
13.59
11.28
8.30
4.86
1.22
-2.45
-6.00
-9.42
-12.75
-16.16
-19.89
-24.21
-29.31
-35.15
-41.30
-46.92
-50.87
-52.01
-49.61
-43.54
-34.44
-23.44
-11.93
-1.12
8.17
15.58
21.11
24.96
27.38
28.53
28.49
27.40
25.45
22.97
20.39
18.14
16.57
15.77
15.65
15.99
16.52
17.05
17.48
17.73
17.73
17.35
16.51
15.11
13.12
10.52
7.29
3.43
-0.96
-5.67
-10.33
-14.61
-18.32
-21.54
-24.68
-28.28
-32.82
-38.45
-44.80
-51.00
-55.88
-58.20
-57.06
-52.08
-43.51
-32.23
-19.52
-6.78
4.75
14.25
21.38
26.25
29.26
30.80
31.22
30.67
29.28
27.22
24.86
22.63
20.96
20.06
19.99
20.63
21.78
23.21
24.67
25.89
26.59
26.55
25.69
24.10
21.90
19.29
16.38
13.21
9.77
6.00
1.92
-2.39
-6.76
-10.94
-14.75
-18.12
-21.21
-24.46
-28.37
-33.30
-39.12
-45.07
-49.88
-52.09
-50.64
-45.17
-36.17
-24.85
-12.67
-1.00
9.20
17.47
23.71
28.04
30.62
31.60
31.17
29.61
27.27
24.61
22.04
19.86
18.27
17.31
16.98
17.28
18.26
19.85
21.89
24.03
25.76
26.64
26.36
24.92
22.55
19.64
16.59
13.66
10.89
8.21
5.39
2.23
-1.34
-5.18
-9.01
-12.54
-15.56
-18.07
-20.37
-22.84
-25.91
-29.87
-34.69
-40.02
-45.08
-48.84
-50.21
-48.33
-42.88
-34.24
-23.39
-11.66
-0.34
9.61
17.71
23.82
28.01
30.38
31.05
30.13
27.92
24.91
21.72
18.95
17.02
16.08
15.98
16.46
17.24
18.22
19.38
20.78
22.35
23.84
24.87
25.07
24.19
22.24
19.45
16.23
12.98
10.02
7.44
5.18
2.98
0.54
-2.39
-5.86
-9.67
-13.45
-16.76
-19.35
-21.20
-22.65
-24.21
-26.44
-29.74
-34.21
-39.54
-45.01
-49.52
-51.85
-51.01
-46.57
-38.82
-28.72
-17.55
-6.54
3.42
11.91
18.76
23.91
27.31
28.91
28.75
27.10
24.42
21.29
18.28
15.81
14.13
13.35
13.43
14.26
15.69
17.55
19.63
21.67
23.38
24.47
24.74
24.11
22.58
20.30
17.42
14.20
10.92
7.80
5.05
2.72
0.67
-1.33
-3.52
-6.05
-8.87
-11.81
-14.65
-17.27
-19.67
-21.99
-24.45
-27.28
-30.73
-34.90
-39.72
-44.83
-49.51
-52.77
-53.57
-51.16
-45.31
-36.44
-25.56
-13.93
-2.75
7.07
15.01
20.90
24.74
26.67
26.85
25.53
23.06
19.95
16.75
13.98
12.02
11.00
10.87
11.43
12.42
13.62
14.94
16.39
17.95
19.51
20.81
21.50
21.24
19.87
17.49
14.47
11.32
8.48
6.17
4.29
2.49
0.38
-2.35
-5.67
-9.32
-12.88
-15.95
-18.37
-20.24
-21.86
-23.59
-25.74
-28.50
-31.92
-35.87
-39.98
-43.58
-45.77
-45.58
-42.36
-35.97
-26.97
-16.43
-5.64
4.25
12.55
18.97
23.56
26.49
27.92
27.99
26.85
24.76
22.08
19.22
16.57
14.41
12.89
12.09
12.02
12.65
13.89
15.60
17.50
19.26
20.51
20.97
20.51
19.22
17.35
15.19
13.01
10.92
8.86
6.66
4.16
1.33
-1.72
-4.76
-7.56
-9.98
-12.06
-14.02
-16.14
-18.75
-22.03
-25.92
-30.07
-33.80
-36.23
-36.49
-33.96
-28.55
-20.73
-11.44
-1.79
7.21
14.91
21.01
25.50
28.44
29.85
29.70
27.99
24.95
21.04
16.88
13.05
10.00
7.88
6.65
6.17
6.22
6.69
7.48
8.47
9.55
10.53
11.19
11.30
10.63
9.07
6.60
3.40
-0.20
-3.84
-7.24
-10.23
-12.89
-15.45
-18.27
-21.72
-26.04
-31.29
-37.20
-43.18
-48.33
-51.63
-52.14
-49.27
-43.04
-34.14
-23.77
-13.24
-3.71
4.15
10.16
14.47
17.33
18.88
19.17
18.21
16.11
13.18
9.85
6.68
4.11
2.45
1.78
1.97
2.75
3.83
4.93
5.93
6.77
7.50
8.09
8.43
8.34
7.60
6.09
3.88
1.22
-1.48
-3.87
-5.79
-7.38
-9.01
-11.16
-14.21
-18.32
-23.31
-28.70
-33.67
-37.18
-38.24
-36.10
-30.56
-22.07
-11.73
-0.88
9.15
17.48
23.77
28.16
31.00
32.65
33.36
33.24
32.34
30.76
28.65
26.18
23.58
21.04
18.79
16.99
15.79
15.26
15.34
15.88
16.58
17.17
17.38
17.01
15.96
14.17
11.67
8.50
4.80
0.81
-3.22
-7.07
-10.61
-13.83
-16.85
-19.75
-22.64
-25.65
-28.99
-32.89
-37.59
-43.02
-48.63
-53.37
-55.93
-55.17
-50.60
-42.56
-32.02
-20.35
-8.80
1.75
10.75
18.00
23.47
27.17
29.23
29.85
29.30
27.91
26.07
24.14
22.47
21.32
20.80
20.86
21.37
22.15
23.11
24.21
25.37
26.42
27.03
26.86
25.66
23.49
20.63
17.57
14.68
12.10
9.71
7.19
4.24
0.71
-3.30
-7.53
-11.63
-15.34
-18.55
-21.35
-24.02
-27.00
-30.74
-35.56
-41.37
-47.56
-52.99
-56.27
-56.17
-52.06
-44.16
-33.45
-21.37
-9.32
1.57
10.72
17.92
23.18
26.62
28.38
28.62
27.63
25.78
23.50
21.14
19.01
17.28
16.13
15.70
16.09
17.30
19.16
21.35
23.45
25.00
25.69
25.41
24.23
22.33
19.93
17.17
14.09
10.68
6.96
2.96
-1.25
-5.54
-9.82
-14.00
-18.04
-21.95
-25.77
-29.64
-33.76
-38.30
-43.29
-48.42
-52.99
-55.99
-56.35
-53.26
-46.52
-36.66
-24.85
-12.55
-1.13
8.52
16.05
21.55
25.32
27.57
28.44
28.05
26.61
24.54
22.41
20.74
19.81
19.65
20.02
20.67
21.51
22.59
24.05
25.91
27.97
29.82
30.89
30.77
29.27
26.56
23.05
19.22
15.49
12.11
9.12
6.43
3.86
1.17
-1.81
-5.21
-8.99
-12.94
-16.76
-20.15
-22.95
-25.23
-27.35
-29.89
-33.39
-38.23
-44.29
-50.86
-56.70
-60.27
-60.19
-55.75
-47.16
-35.52
-22.49
-9.75
1.51
10.69
17.75
22.92
26.41
28.41
29.02
28.45
27.02
25.17
23.35
21.97
21.26
21.30
22.02
23.26
24.77
26.40
28.00
29.49
30.79
31.75
32.14
31.72
30.29
27.86
24.57
20.75
16.75
12.90
9.38
6.23
3.40
0.72
-1.98
-4.83
-7.87
-11.02
-14.08
-16.81
-19.06
-20.83
-22.33
-23.99
-26.32
-29.65
-34.11
-39.34
-44.61
-48.88
-51.09
-50.33
-46.16
-38.71
-28.68
-17.22
-5.65
4.86
13.52
20.03
24.42
26.96
27.85
27.24
25.31
22.32
18.80
15.42
12.82
11.41
11.23
11.96
13.19
14.54
15.86
17.16
18.46
19.74
20.82
21.42
21.28
20.30
18.53
16.18
13.46
10.57
7.62
4.65
1.71
-1.16
-3.90
-6.49
-9.00
-11.50
-14.10
-16.82
-19.57
-22.25
-24.73
-26.96
-29.04
-31.20
-33.76
-37.06
-41.30
-46.38
-51.69
-56.21
-58.65
-57.84
-53.14
-44.70
-33.45
-20.77
-8.10
3.40
13.07
20.72
26.37
30.20
32.35
33.02
32.45
31.00
29.14
27.30
25.87
25.01
24.75
25.01
25.73
26.88
28.40
30.22
32.11
33.76
34.82
35.03
34.32
32.73
30.43
27.61
24.45
21.14
17.84
14.69
11.73
8.92
6.15
3.37
0.61
-2.02
-4.45
-6.71
-8.94
-11.33
-13.97
-16.78
-19.51
-21.92
-23.85
-25.36
-26.79
-28.57
-31.18
-34.94
-39.83
-45.35
-50.53
-54.04
-54.56
-51.26
-44.05
-33.69
-21.49
-8.96
2.63
12.46
20.17
25.77
29.39
31.29
31.72
31.03
29.57
27.75
25.87
24.19
22.86
21.97
21.58
21.75
22.53
23.86
25.59
27.41
29.00
30.05
30.40
30.06
29.11
27.70
25.91
23.86
21.62
19.30
16.96
14.61
12.15
9.47
6.52
3.37
0.20
-2.77
-5.44
-7.87
-10.29
-12.94
-15.94
-19.19
-22.39
-25.18
-27.31
-28.77
-29.80
-30.87
-32.52
-35.15
-38.88
-43.37
-47.80
-51.03
-51.88
-49.46
-43.53
-34.54
-23.59
-11.99
-0.93
8.81
16.89
23.25
27.95
31.03
32.52
32.52
31.22
28.96
26.18
23.37
20.95
19.26
18.49
18.64
19.59
21.13
23.01
24.96
26.71
27.97
28.48
28.07
26.76
24.79
22.51
20.23
18.14
16.23
14.36
12.39
10.24
7.93
5.54
3.15
0.79
-1.53
-3.83
-6.15
-8.53
-10.98
-13.55
-16.21
-18.90
-21.50
-23.91
-26.07
-28.06
-30.11
-32.56
-35.77
-39.89
-44.68
-49.40
-52.90
-53.97
-51.72
-45.95
-37.24
-26.73
-15.73
-5.27
3.98
11.79
18.08
22.78
25.83
27.16
26.95
25.57
23.54
21.38
19.44
17.87
16.71
15.98
15.76
16.16
17.20
18.82
20.81
22.85
24.60
25.79
26.30
26.10
25.33
24.12
22.64
21.01
19.35
17.72
16.19
14.79
13.51
12.28
11.03
9.68
8.23
6.81
5.63
4.92
4.76
4.93
4.95
4.12
1.86
-2.13
-7.71
-14.40
-21.54
-28.51
-34.74
-39.60
-42.39
-42.39
-39.13
-32.69
-23.85
-13.95
-4.49
3.35
9.03
12.64
14.67
15.64
15.90
15.53
14.43
12.55
9.99
6.99
3.95
1.25
-0.87
-2.28
-3.04
-3.29
-3.21
-2.96
-2.63
-2.26
-1.92
-1.69
-1.75
-2.30
-3.51
-5.42
-7.89
-10.61
-13.25
-15.60
-17.67
-19.71
-22.02
-24.77
-27.86
-30.92
-33.47
-35.12
-35.75
-35.56
-35.01
-34.68
-35.15
-36.85
-39.94
-44.22
-49.02
-53.30
-55.85
-55.58
-51.95
-45.01
-35.46
-24.38
-12.91
-2.06
7.46
15.26
21.15
25.11
27.25
27.76
26.93
25.13
22.73
20.12
17.65
15.64
14.28
13.70
13.93
14.88
16.38
18.27
20.33
22.36
24.11
25.31
25.70
25.10
23.51
21.14
18.34
15.52
12.92
10.58
8.29
5.75
2.70
-0.97
-5.10
-9.38
-13.43
-17.03
-20.13
-22.94
-25.84
-29.20
-33.29
-38.05
-43.06
-47.52
-50.36
-50.57
-47.50
-41.10
-32.04
-21.55
-11.01
-1.57
6.15
12.12
16.64
20.10
22.66
24.24
24.61
23.63
21.53
18.82
16.24
14.44
13.76
14.15
15.29
16.76
18.32
19.88
21.47
23.05
24.34
24.92
24.37
22.53
19.61
16.12
12.67
9.67
7.20
5.07
2.92
0.52
-2.20
-5.10
-7.97
-10.64
-13.02
-15.16
-17.27
-19.67
-22.74
-26.75
-31.68
-37.08
-42.08
-45.51
-46.29
-43.75
-37.87
-29.28
-19.08
-8.54
1.21
9.36
15.54
19.72
22.11
23.03
22.78
21.59
19.66
17.19
14.45
11.77
9.50
7.98
7.42
7.87
9.23
11.23
13.50
15.64
17.35
18.41
18.76
18.45
17.55
16.12
14.25
11.99
9.42
6.63
3.69
0.64
-2.45
-5.55
-8.60
-11.55
-14.48
-17.61
-21.19
-25.41
-30.20
-35.11
-39.40
-42.13
-42.49
-40.03
-34.76
-27.23
-18.27
-8.89
0.01
7.78
14.05
18.70
21.81
23.57
24.18
23.82
22.60
20.64
18.10
15.29
12.62
10.54
9.41
9.28
9.95
11.02
12.11
12.97
13.54
13.83
13.80
13.31
12.19
10.28
7.62
4.37
0.78
-2.89
-6.48
-9.92
-13.20
-16.35
-19.43
-22.57
-25.98
-29.88
-34.42
-39.53
-44.81
-49.48
-52.55
-53.05
-50.35
-44.38
-35.66
-25.23
-14.27
-3.90
5.14
12.43
17.88
21.57
23.69
24.44
24.06
22.81
21.00
18.93
16.92
15.30
14.33
14.20
14.92
16.36
18.22
20.21
22.04
23.49
24.42
24.71
24.23
22.90
20.75
17.93
14.71
11.34
8.01
4.69
1.27
-2.36
-6.21
-10.13
-13.91
-17.38
-20.51
-23.40
-26.32
-29.59
-33.50
-38.19
-43.51
-48.91
-53.41
-55.85
-55.17
-50.87
-43.16
-32.97
-21.65
-10.51
-0.51
7.90
14.60
19.72
23.41
25.80
27.08
27.46
27.25
26.76
26.27
25.90
25.74
25.78
25.95
26.25
26.70
27.38
28.33
29.52
30.78
31.76
32.12
31.61
30.16
27.94
25.23
22.32
19.37
16.41
13.35
10.05
6.44
2.49
-1.69
-5.89
-9.88
-13.41
-16.37
-18.79
-20.92
-23.16
-26.02
-29.91
-35.01
-41.02
-47.13
-52.09
-54.49
-53.28
-48.11
-39.49
-28.63
-17.00
-5.91
3.87
12.04
18.63
23.77
27.54
29.92
30.98
30.87
29.87
28.38
26.79
25.48
24.75
24.80
25.66
27.20
29.13
31.12
32.91
34.30
35.22
35.64
35.53
34.80
33.44
31.44
28.93
26.11
23.19
20.33
17.72
15.40
13.41
11.67
10.01
8.19
5.97
3.23
0.02
-3.46
-6.96
-10.25
-13.29
-16.14
-19.06
-22.41
-26.53
-31.58
-37.39
-43.31
-48.30
-51.12
-50.75
-46.69
-39.23
-29.28
-18.10
-6.94
3.27
11.97
18.92
24.11
27.58
29.40
29.67
28.57
26.42
23.67
20.88
18.58
17.19
16.88
17.64
19.24
21.32
23.57
25.65
27.33
28.43
28.89
28.69
27.88
26.51
24.67
22.48
20.18
18.01
16.12
14.53
13.04
11.39
9.40
7.04
4.47
1.89
-0.58
-2.99
-5.43
-7.98
-10.58
-13.09
-15.46
-17.78
-20.33
-23.41
-27.22
-31.63
-36.16
-40.03
-42.31
-42.20
-39.22
-33.39
-25.28
-15.83
-6.13
2.79
10.22
15.84
19.60
21.71
22.39
21.87
20.37
18.13
15.49
12.84
10.63
9.19
8.77
9.38
10.82
12.80
15.00
17.13
18.99
20.39
21.18
21.25
20.48
18.88
16.54
13.62
10.40
7.13
3.99
1.04
-1.81
-4.73
-7.85
-11.15
-14.48
-17.56
-20.16
-22.18
-23.76
-25.20
-26.89
-29.16
-32.17
-35.89
-39.97
-43.80
-46.52
-47.22
-45.18
-40.17
-32.52
-23.12
-13.14
-3.71
4.35
10.59
14.90
17.39
18.24
17.73
16.18
13.99
11.62
9.45
7.76
6.68
6.20
6.29
6.89
7.98
9.49
11.33
13.30
15.08
16.39
16.95
16.61
15.37
13.37
10.84
8.03
5.14
2.30
-0.47
-3.21
-5.97
-8.79
-11.68
-14.57
-17.40
-20.06
-22.48
-24.70
-26.88
-29.36
-32.49
-36.51
-41.35
-46.51
-51.13
-54.08
-54.34
-51.28
-44.89
-35.78
-25.00
-13.80
-3.21
6.00
13.49
19.24
23.40
26.17
27.73
28.26
27.90
26.88
25.47
24.00
22.78
22.01
21.77
22.02
22.60
23.39
24.26
25.12
25.91
26.49
26.72
26.48
25.67
24.29
22.40
20.13
17.54
14.73
11.78
8.73
5.68
2.61
-0.48
-3.65
-6.94
-10.35
-13.74
-16.96
-19.90
-22.54
-25.01
-27.57
-30.50
-34.06
-38.39
-43.31
-48.33
-52.55
-54.91
-54.42
-50.51
-43.30
-33.55
-22.49
-11.43
-1.45
6.80
13.12
17.62
20.56
22.21
22.88
22.79
22.15
21.15
20.00
18.90
18.06
17.63
17.72
18.34
19.38
20.75
22.29
23.83
25.19
26.19
26.62
26.36
25.34
23.61
21.33
18.72
16.05
13.57
11.42
9.60
7.92
6.14
3.97
1.29
-1.91
-5.46
-9.13
-12.67
-15.88
-18.64
-20.90
-22.72
-24.29
-25.98
-28.19
-31.28
-35.38
-40.13
-44.72
-48.01
-48.85
-46.43
-40.64
-32.05
-21.79
-11.16
-1.26
7.23
14.08
19.33
23.13
25.54
26.64
26.48
25.25
23.29
21.06
19.09
17.77
17.36
17.84
19.07
20.77
22.66
24.50
26.07
27.23
27.86
27.90
27.38
26.36
24.96
23.22
21.17
18.81
16.21
13.50
10.83
8.28
5.80
3.21
0.29
-3.01
-6.62
-10.25
-13.60
-16.45
-18.77
-20.76
-22.66
-24.77
-27.30
-30.41
-34.20
-38.60
-43.30
-47.64
-50.69
-51.45
-49.19
-43.76
-35.67
-25.93
-15.68
-5.91
2.77
10.11
16.07
20.68
23.98
25.97
26.71
26.29
24.94
22.99
20.81
18.87
17.53
16.97
17.21
18.04
19.23
20.58
21.95
23.25
24.34
25.02
25.04
24.26
22.65
20.34
17.65
14.85
12.20
9.80
7.66
5.68
3.75
1.76
-0.37
-2.70
-5.26
-8.00
-10.82
-13.56
-16.06
-18.21
-20.08
-21.88
-23.98
-26.73
-30.28
-34.50
-38.90
-42.68
-44.96
-44.99
-42.35
-37.08
-29.66
-20.83
-11.44
-2.30
5.99
13.02
18.54
22.40
24.61
25.21
24.44
22.63
20.20
17.63
15.34
13.64
12.72
12.63
13.33
14.66
16.41
18.32
20.12
21.57
22.50
22.83
22.55
21.69
20.30
18.43
16.14
13.55
10.81
8.11
5.57
3.18
0.84
-1.61
-4.28
-7.13
-10.03
-12.78
-15.24
-17.38
-19.31
-21.26
-23.50
-26.29
-29.75
-33.74
-37.85
-41.34
-43.32
-42.98
-39.88
-34.11
-26.29
-17.30
-8.05
0.72
8.48
14.89
19.67
22.66
23.82
23.28
21.42
18.72
15.71
12.83
10.43
8.74
7.92
7.99
8.88
10.42
12.33
14.35
16.24
17.75
18.67
18.82
18.16
16.75
14.79
12.49
10.06
7.56
4.99
2.30
-0.53
-3.45
-6.36
-9.17
-11.86
-14.47
-17.11
-19.92
-23.08
-26.73
-30.87
-35.22
-39.22
-42.09
-42.99
-41.39
-37.11
-30.49
-22.24
-13.19
-4.13
4.28
11.57
17.43
21.72
24.47
25.82
26.01
25.26
23.73
21.57
18.99
16.34
14.05
12.55
12.09
12.64
13.88
15.35
16.61
17.41
17.74
17.74
17.59
17.34
16.89
15.96
14.27
11.62
8.07
3.90
-0.49
-4.74
-8.65
-12.24
-15.67
-19.16
-22.91
-27.02
-31.52
-36.31
-41.10
-45.35
-48.29
-49.07
-47.00
-41.85
-33.98
-24.29
-13.93
-4.03
4.63
11.64
16.96
20.74
23.19
24.53
24.87
24.41
23.31
21.76
19.98
18.18
16.60
15.47
15.04
15.43
16.65
18.45
20.39
21.99
22.82
22.68
21.62
19.79
17.39
14.56
11.36
7.85
4.09
0.18
-3.78
-7.70
-11.57
-15.39
-19.14
-22.80
-26.36
-29.91
-33.67
-37.86
-42.58
-47.57
-52.15
-55.32
-56.00
-53.42
-47.45
-38.61
-27.99
-16.84
-6.22
3.17
11.04
17.38
22.24
25.73
27.92
28.98
29.13
28.65
27.88
27.06
26.40
25.96
25.74
25.73
25.89
26.23
26.81
27.65
28.70
29.76
30.48
30.48
29.47
27.44
24.64
21.52
18.54
15.97
13.78
11.68
9.24
6.14
2.25
-2.31
-7.19
-11.96
-16.28
-19.93
-22.95
-25.57
-28.20
-31.31
-35.31
-40.35
-46.16
-51.98
-56.65
-58.93
-57.80
-52.87
-44.48
-33.62
-21.65
-9.88
0.67
9.44
16.27
21.26
24.65
26.71
27.70
27.89
27.53
26.88
26.20
25.68
25.44
25.47
25.69
26.00
26.35
26.78
27.41
28.26
29.25
30.14
30.61
30.38
29.39
27.76
25.77
23.68
21.59
19.48
17.17
14.55
11.62
8.54
5.53
2.73
0.11
-2.58
-5.61
-9.11
-12.94
-16.78
-20.24
-23.14
-25.56
-27.80
-30.34
-33.58
-37.76
-42.81
-48.31
-53.44
-57.07
-58.03
-55.44
-49.08
-39.55
-28.09
-16.18
-5.06
4.53
12.39
18.60
23.27
26.44
28.11
28.31
27.32
25.56
23.56
21.82
20.70
20.37
20.91
22.26
24.33
26.88
29.64
32.26
34.39
35.76
36.26
35.89
34.76
33.02
30.81
28.25
25.43
22.43
19.31
16.14
12.93
9.76
6.71
3.91
1.37
-0.94
-3.22
-5.68
-8.47
-11.55
-14.72
-17.71
-20.26
-22.32
-24.01
-25.63
-27.55
-30.14
-33.61
-37.86
-42.40
-46.34
-48.57
-48.08
-44.30
-37.36
-28.02
-17.43
-6.75
3.10
11.57
18.43
23.54
26.84
28.29
27.93
26.05
23.13
19.78
16.56
13.91
12.08
11.18
11.19
12.01
13.46
15.26
17.11
18.70
19.80
20.28
20.09
19.26
17.81
15.81
13.30
10.40
7.20
3.79
0.22
-3.54
-7.52
-11.78
-16.33
-21.16
-26.21
-31.38
-36.58
-41.75
-46.86
-51.89
-56.90
-61.96
-67.33
-73.25
-80.00
-87.59
-95.70
-103.58
-110.24
-114.76
-116.61
-115.86
-113.07
-109.11
-104.70
-100.27
-95.89
-91.37
-86.32
-80.23
-72.57
-62.81
-50.59
-35.74
-18.45
0.84
21.47
42.67
63.58
83.26
100.76
115.21
125.96
132.79
135.87
135.73
133.06
128.49
122.48
115.28
107.04
97.90
88.19
78.40
69.08
60.65
53.23
46.62
40.39
34.05
27.31
20.18
13.01
6.27
0.40
-4.40
-8.20
-11.37
-14.40
-17.85
-22.16
-27.48
-33.49
-39.34
-43.79
-45.52
-43.51
-37.51
-28.05
-16.37
-4.00
7.64
17.61
25.43
31.05
34.66
36.53
36.95
36.22
34.73
32.84
30.94
29.31
28.13
27.48
27.32
27.56
28.10
28.79
29.55
30.27
30.88
31.31
31.50
31.33
30.66
29.36
27.33
24.64
21.46
18.05
14.70
11.56
8.69
6.00
3.31
0.41
-2.84
-6.46
-10.37
-14.41
-18.34
-21.96
-25.12
-27.87
-30.37
-32.98
-36.08
-39.97
-44.68
-49.80
-54.46
-57.49
-57.74
-54.44
-47.49
-37.51
-25.65
-13.22
-1.40
8.97
17.39
23.69
27.85
30.02
30.47
29.57
27.77
25.51
23.16
21.03
19.34
18.28
17.96
18.40
19.51
21.11
22.98
24.89
26.67
28.15
29.21
29.71
29.59
28.80
27.36
25.36
22.96
20.31
17.57
14.83
12.13
9.42
6.59
3.54
0.26
-3.22
-6.74
-10.15
-13.34
-16.24
-18.83
-21.23
-23.58
-26.11
-29.07
-32.67
-36.97
-41.69
-46.15
-49.39
-50.35
-48.25
-42.81
-34.44
-24.08
-13.01
-2.46
6.61
13.69
18.66
21.70
23.07
23.04
21.87
19.75
16.99
14.01
11.29
9.31
8.34
8.44
9.38
10.85
12.55
14.30
16.01
17.60
18.93
19.75
19.84
19.03
17.38
15.14
12.70
10.46
8.63
7.17
5.74
3.92
1.36
-2.04
-6.07
-10.26
-14.04
-17.02
-19.07
-20.44
-21.58
-23.03
-25.23
-28.40
-32.47
-37.01
-41.24
-44.16
-44.76
-42.28
-36.53
-27.93
-17.50
-6.50
3.82
12.55
19.24
23.83
26.51
27.59
27.37
26.12
24.06
21.48
18.73
16.18
14.16
12.88
12.44
12.80
13.90
15.62
17.81
20.26
22.61
24.46
25.40
25.17
23.79
21.52
18.71
15.73
12.85
10.20
7.78
5.49
3.20
0.78
-1.92
-4.95
-8.24
-11.62
-14.83
-17.64
-19.99
-22.07
-24.30
-27.13
-30.90
-35.54
-40.47
-44.73
-47.17
-46.86
-43.33
-36.73
-27.79
-17.56
-7.11
2.67
11.19
18.13
23.32
26.73
28.39
28.47
27.29
25.21
22.69
20.10
17.71
15.73
14.32
13.58
13.61
14.38
15.70
17.28
18.73
19.71
20.05
19.72
18.77
17.30
15.38
13.11
10.61
7.98
5.33
2.66
-0.11
-3.09
-6.29
-9.59
-12.78
-15.66
-18.19
-20.54
-23.06
-26.12
-29.92
-34.42
-39.25
-43.74
-46.97
-48.02
-46.16
-41.08
-33.11
-23.06
-12.10
-1.44
7.99
15.65
21.33
25.10
27.13
27.61
26.75
24.80
22.09
18.98
15.87
13.16
11.18
10.15
10.19
11.22
13.01
15.21
17.38
19.15
20.26
20.55
20.02
18.65
16.51
13.76
10.62
7.34
4.17
1.19
-1.68
-4.63
-7.83
-11.25
-14.74
-18.08
-21.15
-24.07
-27.16
-30.77
-35.12
-40.14
-45.40
-50.20
-53.64
-54.84
-53.13
-48.29
-40.58
-30.77
-19.88
-9.03
0.84
9.10
15.46
19.91
22.65
23.98
24.21
23.60
22.38
20.71
18.82
16.94
15.41
14.48
14.26
14.73
15.71
17.00
18.44
19.94
21.36
22.49
23.04
22.66
21.16
18.55
15.14
11.34
7.59
4.15
1.07
-1.81
-4.83
-8.21
-12.04
-16.18
-20.31
-24.00
-26.99
-29.25
-31.05
-32.93
-35.44
-39.04
-43.83
-49.49
-55.27
-60.12
-62.91
-62.63
-58.74
-51.29
-40.95
-28.83
-16.25
-4.41
5.78
13.85
19.74
23.64
25.94
26.99
27.13
26.62
25.63
24.36
23.04
21.90
21.17
21.06
21.63
22.86
24.63
26.73
28.88
30.80
32.15
32.68
32.27
30.93
28.78
26.02
22.84
19.36
15.67
11.86
8.04
4.37
1.01
-1.92
-4.45
-6.71
-8.94
-11.36
-14.11
-17.20
-20.48
-23.76
-26.83
-29.60
-32.13
-34.66
-37.54
-41.14
-45.73
-51.22
-57.05
-62.15
-65.18
-64.92
-60.61
-52.36
-41.06
-28.12
-15.06
-3.14
6.91
14.84
20.73
24.85
27.46
28.80
29.10
28.61
27.65
26.54
25.65
25.23
25.42
26.21
27.46
29.02
30.74
32.48
34.11
35.46
36.32
36.50
35.91
34.62
32.84
30.79
28.64
26.39
23.91
21.06
17.81
14.21
10.49
6.91
3.70
1.03
-1.09
-2.77
-4.29
-5.96
-8.04
-10.60
-13.49
-16.42
-19.15
-21.64
-24.10
-26.94
-30.58
-35.22
-40.67
-46.33
-51.20
-54.13
-54.10
-50.50
-43.34
-33.28
-21.46
-9.16
2.45
12.59
20.84
27.04
31.17
33.38
33.89
33.10
31.53
29.68
27.97
26.63
25.80
25.48
25.72
26.55
27.96
29.86
32.00
34.04
35.62
36.47
36.46
35.64
34.17
32.29
30.20
28.00
25.74
23.38
20.85
18.13
15.17
12.00
8.73
5.47
2.39
-0.46
-3.11
-5.66
-8.28
-11.04
-13.89
-16.68
-19.21
-21.39
-23.32
-25.27
-27.58
-30.60
-34.53
-39.28
-44.43
-49.19
-52.48
-53.18
-50.48
-44.18
-34.81
-23.48
-11.60
-0.48
8.98
16.37
21.68
25.13
26.97
27.43
26.69
24.96
22.50
19.67
16.95
14.81
13.63
13.61
14.68
16.61
19.03
21.58
23.96
25.89
27.16
27.57
27.01
25.54
23.38
20.93
18.57
16.52
14.74
13.00
11.04
8.74
6.18
3.58
1.15
-1.05
-3.15
-5.30
-7.60
-10.00
-12.34
-14.51
-16.48
-18.34
-20.25
-22.35
-24.71
-27.37
-30.39
-33.83
-37.65
-41.58
-45.04
-47.22
-47.25
-44.55
-38.99
-30.99
-21.40
-11.22
-1.43
7.25
14.37
19.74
23.32
25.18
25.48
24.40
22.24
19.38
16.24
13.28
10.92
9.42
8.90
9.33
10.55
12.38
14.60
17.01
19.31
21.19
22.32
22.47
21.61
19.89
17.61
15.08
12.57
10.20
7.97
5.83
3.66
1.39
-1.00
-3.55
-6.20
-8.88
-11.45
-13.76
-15.70
-17.21
-18.40
-19.48
-20.77
-22.57
-25.07
-28.24
-31.75
-34.99
-37.19
-37.57
-35.60
-31.15
-24.56
-16.54
-8.04
0.08
7.15
12.84
17.07
19.92
21.52
22.00
21.42
19.88
17.56
14.74
11.81
9.23
7.44
6.73
7.19
8.65
10.75
13.03
15.08
16.56
17.30
17.21
16.29
14.62
12.35
9.70
6.93
4.22
1.62
-0.91
-3.56
-6.45
-9.61
-12.89
-16.06
-18.88
-21.27
-23.37
-25.50
-28.02
-31.17
-34.88
-38.69
-41.84
-43.43
-42.71
-39.35
-33.49
-25.70
-16.80
-7.65
0.97
8.47
14.47
18.79
21.41
22.45
22.10
20.56
18.05
14.85
11.36
8.05
5.45
3.89
3.48
4.03
5.16
6.49
7.73
8.71
9.33
9.54
9.26
8.37
6.81
4.58
1.72
-1.65
-5.38
-9.30
-13.20
-16.93
-20.40
-23.65
-26.76
-29.93
-33.33
-37.10
-41.27
-45.65
-49.79
-52.96
-54.28
-52.97
-48.59
-41.24
-31.59
-20.72
-9.84
0.07
8.34
14.72
19.27
22.16
23.65
23.94
23.24
21.76
19.72
17.40
15.11
13.12
11.64
10.75
10.47
10.77
11.57
12.72
14.06
15.31
16.20
16.46
15.97
14.74
12.91
10.65
8.05
5.13
1.90
-1.60
-5.25
-8.86
-12.26
-15.35
-18.16
-20.84
-23.68
-27.07
-31.36
-36.68
-42.71
-48.62
-53.18
-55.04
-53.25
-47.62
-38.77
-27.98
-16.70
-6.16
2.91
10.22
15.79
19.72
22.09
23.03
22.80
21.76
20.39
19.13
18.25
17.82
17.76
17.94
18.31
18.93
19.92
21.35
23.18
25.20
27.06
28.38
28.81
28.17
26.50
24.02
21.11
18.08
15.09
12.10
8.93
5.32
1.14
-3.54
-8.47
-13.22
-17.43
-20.88
-23.60
-25.88
-28.18
-30.99
-34.67
-39.28
-44.41
-49.24
-52.66
-53.60
-51.34
-45.74
-37.28
-26.94
-15.91
-5.28
4.13
11.87
17.81
22.03
24.69
25.97
26.05
25.14
23.54
21.63
19.83
18.56
18.07
18.41
19.43
20.87
22.43
23.91
25.17
26.16
26.86
27.22
27.21
26.77
25.82
24.32
22.26
19.71
16.80
13.77
10.84
8.15
5.72
3.39
1.01
-1.58
-4.42
-7.42
-10.39
-13.17
-15.65
-17.82
-19.77
-21.67
-23.76
-26.36
-29.81
-34.28
-39.58
-45.06
-49.56
-51.82
-50.81
-46.17
-38.30
-28.28
-17.44
-6.99
2.24
9.86
15.77
20.06
22.82
24.18
24.31
23.45
21.91
20.05
18.29
17.00
16.49
16.93
18.28
20.36
22.86
25.45
27.83
29.75
31.02
31.51
31.15
29.94
28.03
25.65
23.07
20.51
18.07
15.77
13.57
11.43
9.30
7.20
5.11
3.06
1.03
-1.02
-3.11
-5.27
-7.42
-9.52
-11.45
-13.14
-14.66
-16.20
-18.06
-20.59
-24.01
-28.35
-33.33
-38.39
-42.70
-45.34
-45.46
-42.60
-36.74
-28.50
-18.86
-8.94
0.27
8.11
14.32
18.91
21.97
23.59
23.86
22.86
20.88
18.38
15.95
14.19
13.50
13.96
15.36
17.31
19.39
21.32
22.97
24.25
25.10
25.37
24.93
23.76
22.00
19.93
17.83
15.87
14.04
12.21
10.24
8.08
5.89
3.86
2.19
0.89
-0.22
-1.45
-3.05
-5.12
-7.53
-10.02
-12.30
-14.24
-15.86
-17.39
-19.13
-21.37
-24.27
-27.75
-31.42
-34.64
-36.57
-36.44
-33.76
-28.51
-21.18
-12.67
-3.99
3.94
10.48
15.34
18.50
20.12
20.42
19.58
17.81
15.34
12.49
9.68
7.39
5.98
5.68
6.42
7.99
10.08
12.37
14.61
16.60
18.16
19.15
19.42
18.92
17.70
15.91
13.76
11.46
9.18
7.00
4.87
2.66
0.20
-2.64
-5.89
-9.47
-13.18
-16.80
-20.11
-23.01
-25.52
-27.83
-30.24
-33.07
-36.49
-40.35
-44.17
-47.11
-48.26
-46.90
-42.75
-36.05
-27.54
-18.14
-8.78
-0.20
7.10
12.86
17.00
19.56
20.67
20.55
19.49
17.75
15.64
13.43
11.38
9.77
8.83
8.74
9.50
10.99
12.94
15.04
16.99
18.50
19.35
19.37
18.47
16.68
14.22
11.39
8.46
5.60
2.76
-0.27
-3.68
-7.53
-11.66
-15.78
-19.57
-22.82
-25.55
-27.93
-30.30
-33.04
-36.40
-40.40
-44.75
-48.73
-51.38
-51.71
-49.10
-43.46
-35.34
-25.74
-15.75
-6.30
2.05
9.03
14.57
18.64
21.24
22.48
22.55
21.83
20.70
19.52
18.57
18.03
18.02
18.61
19.77
21.40
23.23
25.00
26.46
27.49
28.05
28.11
27.61
26.43
24.51
21.92
18.87
15.68
12.65
9.91
7.37
4.79
1.89
-1.51
-5.39
-9.51
-13.52
-17.02
-19.80
-21.86
-23.41
-24.88
-26.74
-29.41
-33.11
-37.71
-42.74
-47.37
-50.61
-51.46
-49.26
-43.86
-35.69
-25.69
-15.07
-5.01
3.65
10.47
15.45
18.90
21.16
22.55
23.28
23.47
23.25
22.82
22.41
22.25
22.51
23.21
24.24
25.48
26.83
28.21
29.59
30.88
31.93
32.52
32.49
31.78
30.45
28.66
26.57
24.32
21.94
19.45
16.81
14.04
11.19
8.41
5.79
3.41
1.20
-0.99
-3.36
-6.03
-8.94
-11.90
-14.68
-17.11
-19.19
-21.10
-23.12
-25.55
-28.68
-32.70
-37.63
-43.15
-48.56
-52.77
-54.63
-53.26
-48.43
-40.60
-30.76
-20.10
-9.64
-0.11
8.08
14.76
19.83
23.32
25.38
26.23
26.20
25.59
24.67
23.68
22.88
22.51
22.77
23.73
25.28
27.21
29.24
31.15
32.79
34.06
34.89
35.20
34.89
33.93
32.40
30.48
28.35
26.19
24.04
21.82
19.36
16.57
13.43
10.10
6.82
3.80
1.14
-1.18
-3.29
-5.33
-7.37
-9.37
-11.27
-13.00
-14.59
-16.10
-17.65
-19.41
-21.55
-24.24
-27.64
-31.74
-36.22
-40.43
-43.39
-44.06
-41.68
-36.09
-27.79
-17.84
-7.49
2.15
10.36
16.83
21.60
24.82
26.60
27.02
26.14
24.10
21.21
17.91
14.74
12.19
10.59
10.09
10.64
12.03
14.03
16.37
18.80
21.08
22.96
24.21
24.68
24.38
23.36
21.80
19.84
17.63
15.19
12.56
9.72
6.72
3.66
0.66
-2.17
-4.81
-7.30
-9.78
-12.34
-15.04
-17.82
-20.51
-23.00
-25.19
-27.14
-29.08
-31.27
-33.97
-37.33
-41.26
-45.38
-49.03
-51.39
-51.61
-49.11
-43.79
-36.12
-27.03
-17.66
-9.01
-1.75
3.91
8.12
11.12
13.16
14.33
14.64
14.11
12.91
11.34
9.81
8.71
8.29
8.62
9.64
11.23
13.23
15.44
17.65
19.57
20.91
21.45
21.10
19.97
18.30
16.33
14.23
12.08
9.82
7.43
4.90
2.36
-0.06
-2.17
-3.96
-5.51
-7.01
-8.71
-10.75
-13.16
-15.82
-18.57
-21.21
-23.62
-25.76
-27.69
-29.57
-31.64
-34.22
-37.60
-41.80
-46.46
-50.74
-53.50
-53.63
-50.43
-43.90
-34.73
-24.04
-13.05
-2.74
6.27
13.68
19.39
23.39
25.75
26.64
26.40
25.41
24.10
22.83
21.85
21.34
21.35
21.89
22.88
24.17
25.61
26.99
28.20
29.18
29.87
30.18
29.98
29.20
27.82
25.95
23.76
21.44
19.08
16.73
14.43
12.21
10.12
8.17
6.27
4.26
2.00
-0.60
-3.47
-6.46
-9.40
-12.21
-14.88
-17.44
-19.92
-22.37
-24.89
-27.64
-30.75
-34.13
-37.38
-39.70
-40.22
-38.23
-33.57
-26.68
-18.48
-10.00
-2.03
4.94
10.73
15.29
18.56
20.45
20.87
19.92
17.80
14.91
11.75
8.83
6.62
5.42
5.36
6.32
8.01
10.09
12.24
14.31
16.20
17.85
19.14
19.93
20.07
19.48
18.21
16.38
14.17
11.77
9.29
6.80
4.23
1.50
-1.46
-4.64
-7.88
-10.95
-13.61
-15.78
-17.58
-19.35
-21.47
-24.27
-27.79
-31.74
-35.51
-38.30
-39.28
-37.89
-33.95
-27.72
-19.85
-11.20
-2.58
5.36
12.20
17.72
21.79
24.35
25.38
24.98
23.43
21.14
18.59
16.22
14.29
12.88
11.93
11.37
11.18
11.41
12.06
13.08
14.27
15.34
15.99
16.01
15.35
14.11
12.49
10.69
8.79
6.77
4.46
1.72
-1.56
-5.31
-9.32
-13.29
-16.92
-20.09
-22.81
-25.31
-27.89
-30.91
-34.57
-38.91
-43.57
-47.83
-50.77
-51.42
-49.15
-43.89
-36.11
-26.75
-16.88
-7.43
0.97
8.04
13.72
18.05
21.07
22.86
23.46
22.96
21.50
19.38
17.05
15.03
13.80
13.62
14.43
15.87
17.45
18.78
19.75
20.45
21.01
21.44
21.53
20.95
19.44
16.98
13.86
10.51
7.29
4.35
1.60
-1.20
-4.25
-7.57
-10.99
-14.19
-16.94
-19.10
-20.75
-22.16
-23.67
-25.59
-28.16
-31.44
-35.32
-39.49
-43.46
-46.61
-48.29
-47.95
-45.23
-40.12
-32.96
-24.41
-15.25
-6.28
1.88
8.85
14.42
18.58
21.39
22.92
23.34
22.84
21.74
20.34
18.96
17.81
17.01
16.66
16.81
17.55
18.92
20.86
23.19
25.57
27.64
29.05
29.59
29.21
28.01
26.20
24.03
21.76
19.55
17.53
15.66
13.86
11.99
9.94
7.67
5.25
2.82
0.55
-1.47
-3.25
-4.87
-6.45
-8.10
-9.95
-12.07
-14.54
-17.35
-20.35
-23.34
-26.09
-28.48
-30.67
-33.01
-35.95
-39.81
-44.51
-49.49
-53.83
-56.45
-56.45
-53.31
-47.08
-38.31
-27.93
-17.08
-6.88
1.86
8.65
13.41
16.39
17.96
18.52
18.35
17.67
16.67
15.54
14.58
14.06
14.12
14.79
15.90
17.26
18.68
20.07
21.38
22.64
23.83
24.90
25.69
26.00
25.65
24.60
22.93
20.91
18.87
17.10
15.73
14.72
13.88
12.97
11.83
10.42
8.75
6.87
4.82
2.67
0.53
-1.50
-3.35
-5.09
-6.93
-9.10
-11.78
-14.95
-18.42
-21.85
-24.99
-27.87
-30.80
-34.27
-38.70
-44.09
-49.86
-54.89
-57.82
-57.45
-53.25
-45.46
-35.10
-23.54
-12.14
-1.85
6.86
13.93
19.51
23.75
26.78
28.68
29.60
29.79
29.55
29.20
28.96
28.91
29.05
29.33
29.72
30.28
31.03
31.97
32.98
33.92
34.58
34.83
34.57
33.75
32.36
30.42
28.05
25.47
22.96
20.77
19.03
17.65
16.42
15.11
13.56
11.77
9.84
7.90
5.97
4.01
1.88
-0.54
-3.30
-6.33
-9.47
-12.47
-15.15
-17.41
-19.28
-20.95
-22.75
-25.05
-28.19
-32.41
-37.64
-43.39
-48.76
-52.54
-53.56
-51.07
-45.00
-36.07
-25.52
-14.73
-4.79
3.66
10.45
15.68
19.56
22.25
23.83
24.40
24.08
23.13
21.87
20.67
19.84
19.61
20.00
20.91
22.13
23.47
24.84
26.17
27.40
28.39
28.86
28.52
27.19
24.85
21.71
18.10
14.38
10.86
7.73
5.05
2.76
0.70
-1.31
-3.49
-5.94
-8.64
-11.49
-14.24
-16.73
-18.83
-20.57
-22.09
-23.61
-25.42
-27.76
-30.78
-34.38
-38.13
-41.32
-43.09
-42.66
-39.63
-34.05
-26.47
-17.72
-8.68
-0.16
7.25
13.18
17.43
19.96
20.89
20.46
19.00
16.87
14.37
11.76
9.27
7.16
5.73
5.24
5.83
7.45
9.84
12.58
15.25
17.48
19.11
20.05
20.29
19.87
18.84
17.35
15.55
13.62
11.63
9.56
7.35
4.91
2.30
-0.37
-2.95
-5.38
-7.70
-10.07
-12.69
-15.75
-19.28
-23.12
-26.85
-29.87
-31.45
-30.93
-27.93
-22.47
-15.04
-6.41
2.52
10.97
18.37
24.38
28.84
31.70
33.04
33.01
31.88
30.01
27.77
25.58
23.76
22.55
22.13
22.56
23.88
26.05
28.97
32.45
36.18
39.72
42.53
43.99
43.58
41.01
36.36
30.12
23.04
15.95
9.48
3.94
-0.76
-4.94
-8.95
-13.03
-17.25
-21.62
-26.05
-30.43
-34.52
-37.86
-39.80
-39.67
-37.08
-32.11
-25.33
-17.65
-10.02
-3.13
2.62
7.10
10.27
12.10
12.60
11.83
10.02
7.52
4.72
2.00
-0.34
-2.10
-3.13
-3.35
-2.76
-1.46
0.38
2.51
4.69
6.66
8.12
8.86
8.72
7.73
6.15
4.44
3.09
2.36
2.19
2.08
1.30
-0.93
-5.10
-11.30
-19.08
-27.59
-35.57
-41.70
-44.87
-44.45
-40.50
-33.81
-25.55
-16.97
-9.01
-2.20
3.33
7.56
10.47
12.05
12.33
11.50
9.89
7.82
5.57
3.29
1.03
-1.09
-2.91
-4.22
-4.82
-4.61
-3.64
-2.17
-0.57
0.63
0.91
-0.21
-2.88
-6.89
-11.66
-16.42
-20.54
-23.76
-26.33
-28.86
-32.01
-36.19
-41.31
-46.75
-51.54
-54.64
-55.22
-52.92
-47.99
-41.31
-34.22
-28.18
-24.24
-22.63
-22.65
-22.92
-22.03
-19.14
-14.34
-8.52
-2.86
1.75
5.02
7.31
9.22
11.23
13.39
15.41
16.79
17.14
16.32
14.52
12.14
9.74
7.72
6.33
5.55
5.19
5.08
5.12
5.33
5.72
6.14
6.17
5.20
2.66
-1.66
-7.49
-14.05
-20.28
-25.17
-28.02
-28.57
-26.93
-23.50
-18.79
-13.33
-7.62
-2.08
3.02
7.48
11.21
14.20
16.43
17.91
18.65
18.68
18.09
17.05
15.77
14.59
13.81
13.67
14.27
15.48
17.05
18.60
19.80
20.41
20.32
19.53
18.13
16.18
13.77
10.93
7.71
4.16
0.36
-3.62
-7.63
-11.57
-15.31
-18.78
-21.97
-25.00
-28.08
-31.54
-35.57
-40.11
-44.69
-48.35
-50.00
-48.73
-44.23
-36.91
-27.78
-18.06
-8.81
-0.64
6.22
11.80
16.15
19.29
21.18
21.92
21.72
20.96
20.05
19.34
19.04
19.21
19.86
20.95
22.46
24.33
26.48
28.75
30.93
32.73
33.90
34.23
33.59
31.99
29.57
26.58
23.35
20.16
17.22
14.54
12.02
9.44
6.60
3.32
-0.38
-4.39
-8.45
-12.28
-15.65
-18.55
-21.17
-23.93
-27.27
-31.53
-36.72
-42.46
-47.97
-52.26
-54.32
-53.46
-49.41
-42.40
-33.16
-22.69
-12.00
-2.00
6.73
13.88
19.42
23.43
26.02
27.36
27.58
26.93
25.74
24.41
23.35
22.87
23.05
23.87
25.16
26.75
28.42
29.99
31.25
32.03
32.20
31.73
30.68
29.15
27.23
24.96
22.38
19.55
16.59
13.68
11.04
8.83
7.09
5.73
4.53
3.19
1.46
-0.79
-3.55
-6.61
-9.67
-12.47
-14.87
-16.89
-18.70
-20.62
-23.03
-26.30
-30.65
-35.98
-41.69
-46.78
-49.98
-50.22
-46.91
-40.22
-31.00
-20.47
-9.84
-0.03
8.43
15.31
20.56
24.18
26.26
26.94
26.51
25.33
23.85
22.42
21.34
20.80
20.87
21.51
22.61
24.06
25.72
27.49
29.26
30.83
31.99
32.48
32.13
30.93
29.07
26.84
24.51
22.20
19.91
17.55
15.06
12.46
9.83
7.28
4.86
2.58
0.46
-1.51
-3.37
-5.21
-7.14
-9.25
-11.53
-13.84
-15.98
-17.82
-19.40
-20.99
-23.04
-25.98
-30.01
-34.92
-40.05
-44.34
-46.64
-46.06
-42.21
-35.40
-26.48
-16.57
-6.71
2.37
10.32
17.01
22.41
26.42
28.90
29.77
29.13
27.31
24.86
22.37
20.30
18.92
18.28
18.26
18.70
19.50
20.59
21.91
23.32
24.63
25.58
25.97
25.71
24.89
23.70
22.34
20.92
19.44
17.80
15.89
13.69
11.32
8.96
6.81
4.94
3.28
1.67
-0.09
-2.13
-4.46
-7.00
-9.57
-12.06
-14.36
-16.49
-18.50
-20.54
-22.78
-25.45
-28.72
-32.58
-36.72
-40.55
-43.15
-43.69
-41.53
-36.62
-29.41
-20.79
-11.76
-3.15
4.50
10.94
16.09
19.90
22.30
23.18
22.63
20.83
18.23
15.34
12.71
10.73
9.65
9.58
10.53
12.39
14.94
17.84
20.65
22.91
24.29
24.68
24.19
23.06
21.56
19.83
17.96
15.95
13.81
11.57
9.29
7.02
4.84
2.79
0.90
-0.87
-2.59
-4.39
-6.34
-8.45
-10.64
-12.75
-14.64
-16.25
-17.66
-19.04
-20.67
-22.80
-25.63
-29.17
-33.14
-36.99
-39.91
-41.04
-39.69
-35.60
-29.01
-20.66
-11.57
-2.77
4.93
11.07
15.55
18.49
20.04
20.39
19.70
18.20
16.22
14.15
12.35
11.04
10.29
10.04
10.24
10.89
12.00
13.65
15.76
18.13
20.43
22.28
23.33
23.43
22.56
20.91
18.71
16.24
13.74
11.37
9.23
7.32
5.55
3.77
1.84
-0.39
-2.95
-5.78
-8.70
-11.55
-14.17
-16.54
-18.75
-20.98
-23.45
-26.25
-29.29
-32.16
-34.26
-34.89
-33.55
-30.08
-24.74
-18.14
-11.02
-4.05
2.22
7.49
11.58
14.44
16.07
16.53
15.94
14.46
12.24
9.50
6.53
3.66
1.24
-0.44
-1.19
-0.99
0.05
1.72
3.76
5.92
7.90
9.44
10.33
10.50
9.98
8.95
7.57
5.94
4.07
1.93
-0.48
-3.10
-5.81
-8.51
-11.22
-14.03
-17.09
-20.52
-24.35
-28.45
-32.54
-36.19
-38.85
-39.89
-38.84
-35.47
-29.93
-22.78
-14.74
-6.61
0.95
7.52
12.83
16.73
19.12
19.97
19.29
17.27
14.24
10.70
7.20
4.23
2.11
0.96
0.66
0.97
1.64
2.45
3.24
3.94
4.47
4.80
4.83
4.46
3.57
2.06
-0.12
-2.90
-6.12
-9.53
-12.89
-16.04
-18.94
-21.66
-24.36
-27.23
-30.44
-33.99
-37.69
-41.10
-43.54
-44.26
-42.65
-38.52
-32.12
-24.14
-15.44
-6.88
0.90
7.50
12.74
16.57
19.00
20.11
19.99
18.80
16.76
14.14
11.32
8.68
6.58
5.28
4.82
5.04
5.72
6.60
7.56
8.52
9.46
10.27
10.76
10.71
9.91
8.25
5.80
2.77
-0.57
-3.97
-7.27
-10.47
-13.65
-16.99
-20.68
-24.88
-29.66
-34.95
-40.40
-45.39
-49.07
-50.54
-49.21
-44.95
-38.19
-29.76
-20.65
-11.70
-3.47
3.73
9.71
14.34
17.54
19.30
19.79
19.32
18.22
16.77
15.15
13.55
12.18
11.33
11.28
12.21
14.04
16.43
18.84
20.78
21.91
22.18
21.77
20.96
19.96
18.83
17.45
15.58
13.05
9.80
5.96
1.84
-2.28
-6.13
-9.63
-12.79
-15.76
-18.72
-21.96
-25.76
-30.27
-35.40
-40.67
-45.22
-48.00
-48.11
-45.11
-39.23
-31.27
-22.29
-13.32
-5.07
2.10
8.08
12.84
16.36
18.65
19.74
19.81
19.18
18.25
17.36
16.82
16.77
17.27
18.23
19.60
21.28
23.18
25.22
27.31
29.25
30.82
31.79
31.95
31.21
29.60
27.29
24.53
21.57
18.67
15.95
13.44
11.08
8.73
6.21
3.39
0.20
-3.31
-6.97
-10.52
-13.70
-16.40
-18.71
-20.98
-23.72
-27.34
-32.00
-37.37
-42.69
-46.88
-48.91
-48.07
-44.23
-37.83
-29.71
-20.89
-12.21
-4.29
2.59
8.35
13.00
16.59
19.06
20.47
20.92
20.65
19.98
19.28
18.84
18.86
19.39
20.38
21.79
23.52
25.51
27.62
29.66
31.36
32.45
32.77
32.31
31.24
29.78
28.16
26.46
24.65
22.60
20.19
17.37
14.26
11.06
8.05
5.42
3.22
1.32
-0.57
-2.72
-5.26
-8.11
-10.98
-13.59
-15.78
-17.65
-19.55
-21.91
-25.15
-29.46
-34.69
-40.32
-45.46
-49.07
-50.17
-48.14
-42.87
-34.87
-25.08
-14.64
-4.58
4.32
11.67
17.36
21.47
24.14
25.52
25.71
24.89
23.35
21.48
19.75
18.62
18.37
19.07
20.58
22.63
24.93
27.24
29.34
31.06
32.21
32.65
32.32
31.29
29.77
28.03
26.29
24.70
23.24
21.79
20.19
18.31
16.09
13.58
10.89
8.16
5.50
2.94
0.48
-1.96
-4.41
-6.82
-9.10
-11.14
-12.88
-14.41
-15.92
-17.70
-20.01
-22.99
-26.59
-30.45
-33.93
-36.20
-36.43
-34.04
-28.90
-21.41
-12.38
-2.82
6.36
14.48
21.11
26.01
28.96
29.87
28.73
25.83
21.69
17.01
12.57
8.99
6.65
5.64
5.82
6.91
8.62
10.64
12.68
14.55
16.09
17.20
17.80
17.84
17.26
16.06
14.32
12.22
9.97
7.77
5.78
4.01
2.35
0.58
-1.49
-3.95
-6.70
-9.51
-12.12
-14.39
-16.39
-18.31
-20.50
-23.20
-26.50
-30.29
-34.20
-37.72
-40.19
-40.94
-39.47
-35.59
-29.54
-21.94
-13.62
-5.42
2.01
8.26
13.17
16.69
18.81
19.61
19.16
17.63
15.26
12.43
9.62
7.37
6.17
6.34
7.90
10.51
13.61
16.52
18.75
20.02
20.29
19.76
18.65
17.14
15.30
13.12
10.55
7.52
4.05
0.20
-3.90
-8.06
-12.07
-15.75
-19.00
-21.78
-24.18
-26.39
-28.68
-31.35
-34.59
-38.33
-42.17
-45.30
-46.78
-45.73
-41.72
-34.91
-26.04
-16.18
-6.41
2.45
9.90
15.77
20.02
22.73
24.00
